 #      wave           flux
       22900.000      0.99995747
       22900.040      0.99995987
       22900.080      0.99996117
       22900.120      0.99996187
       22900.160      0.99996223
       22900.200      0.99996242
       22900.240      0.99996251
       22900.280      0.99996251
       22900.320      0.99996245
       22900.360      0.99996230
       22900.400      0.99996206
       22900.440      0.99996173
       22900.480      0.99996129
       22900.520      0.99996073
       22900.560      0.99996004
       22900.600      0.99995920
       22900.640      0.99995822
       22900.680      0.99995706
       22900.720      0.99995573
       22900.760      0.99995420
       22900.800      0.99995247
       22900.840      0.99995053
       22900.880      0.99994836
       22900.920      0.99994599
       22900.960      0.99994344
       22901.000      0.99994076
       22901.040      0.99993805
       22901.080      0.99993540
       22901.120      0.99993288
       22901.160      0.99993045
       22901.200      0.99992779
       22901.240      0.99992419
       22901.280      0.99991818
       22901.320      0.99990708
       22901.360      0.99988549
       22901.400      0.99984162
       22901.440      0.99974919
       22901.480      0.99955206
       22901.520      0.99913914
       22901.560      0.99831403
       22901.600      0.99677306
       22901.640      0.99411361
       22901.680      0.98992454
       22901.720      0.98400489
       22901.760      0.97666103
       22901.800      0.96880641
       22901.840      0.96184235
       22901.880      0.95730168
       22901.920      0.95631519
       22901.960      0.95915075
       22902.000      0.96509065
       22902.040      0.97273292
       22902.080      0.98051098
       22902.120      0.98721146
       22902.160      0.99225278
       22902.200      0.99563576
       22902.240      0.99769886
       22902.280      0.99885588
       22902.320      0.99944334
       22902.360      0.99970338
       22902.400      0.99980171
       22902.440      0.99983781
       22902.480      0.99985701
       22902.520      0.99987228
       22902.560      0.99988296
       22902.600      0.99988659
       22902.640      0.99988260
       22902.680      0.99986788
       22902.720      0.99982769
       22902.760      0.99972377
       22902.800      0.99948730
       22902.840      0.99901920
       22902.880      0.99818724
       22902.920      0.99682587
       22902.960      0.99477807
       22903.000      0.99199168
       22903.040      0.98862314
       22903.080      0.98510122
       22903.120      0.98207639
       22903.160      0.98023433
       22903.200      0.98004045
       22903.240      0.98153240
       22903.280      0.98430455
       22903.320      0.98770615
       22903.360      0.99110069
       22903.400      0.99404441
       22903.440      0.99632046
       22903.480      0.99789593
       22903.520      0.99886704
       22903.560      0.99939891
       22903.600      0.99966216
       22903.640      0.99978778
       22903.680      0.99985157
       22903.720      0.99988825
       22903.760      0.99991074
       22903.800      0.99992344
       22903.840      0.99992848
       22903.880      0.99992780
       22903.920      0.99992353
       22903.960      0.99991776
       22904.000      0.99991224
       22904.040      0.99990806
       22904.080      0.99990555
       22904.120      0.99990450
       22904.160      0.99990441
       22904.200      0.99990469
       22904.240      0.99990478
       22904.280      0.99990433
       22904.320      0.99990327
       22904.360      0.99990180
       22904.400      0.99990030
       22904.440      0.99989919
       22904.480      0.99989879
       22904.520      0.99989920
       22904.560      0.99990005
       22904.600      0.99990044
       22904.640      0.99989901
       22904.680      0.99989421
       22904.720      0.99988440
       22904.760      0.99986763
       22904.800      0.99984060
       22904.840      0.99979545
       22904.880      0.99971147
       22904.920      0.99953847
       22904.960      0.99917193
       22905.000      0.99843477
       22905.040      0.99709384
       22905.080      0.99489841
       22905.120      0.99165302
       22905.160      0.98737305
       22905.200      0.98244774
       22905.240      0.97767246
       22905.280      0.97406909
       22905.320      0.97253037
       22905.360      0.97346275
       22905.400      0.97661744
       22905.440      0.98119485
       22905.480      0.98616921
       22905.520      0.99066174
       22905.560      0.99417678
       22905.600      0.99661859
       22905.640      0.99814974
       22905.680      0.99901574
       22905.720      0.99945483
       22905.760      0.99965954
       22905.800      0.99975441
       22905.840      0.99980274
       22905.880      0.99983096
       22905.920      0.99984838
       22905.960      0.99985828
       22906.000      0.99986236
       22906.040      0.99986208
       22906.080      0.99985898
       22906.120      0.99985459
       22906.160      0.99985019
       22906.200      0.99984658
       22906.240      0.99984408
       22906.280      0.99984263
       22906.320      0.99984201
       22906.360      0.99984192
       22906.400      0.99984203
       22906.440      0.99984209
       22906.480      0.99984194
       22906.520      0.99984148
       22906.560      0.99984070
       22906.600      0.99983960
       22906.640      0.99983820
       22906.680      0.99983655
       22906.720      0.99983465
       22906.760      0.99983256
       22906.800      0.99983030
       22906.840      0.99982790
       22906.880      0.99982540
       22906.920      0.99982282
       22906.960      0.99982019
       22907.000      0.99981752
       22907.040      0.99981481
       22907.080      0.99981208
       22907.120      0.99980930
       22907.160      0.99980647
       22907.200      0.99980358
       22907.240      0.99980062
       22907.280      0.99979756
       22907.320      0.99979441
       22907.360      0.99979115
       22907.400      0.99978776
       22907.440      0.99978425
       22907.480      0.99978059
       22907.520      0.99977678
       22907.560      0.99977283
       22907.600      0.99976875
       22907.640      0.99976453
       22907.680      0.99976020
       22907.720      0.99975577
       22907.760      0.99975126
       22907.800      0.99974667
       22907.840      0.99974203
       22907.880      0.99973734
       22907.920      0.99973263
       22907.960      0.99972790
       22908.000      0.99972317
       22908.040      0.99971843
       22908.080      0.99971366
       22908.120      0.99970883
       22908.160      0.99970388
       22908.200      0.99969875
       22908.240      0.99969335
       22908.280      0.99968762
       22908.320      0.99968148
       22908.360      0.99967484
       22908.400      0.99966763
       22908.440      0.99965978
       22908.480      0.99965121
       22908.520      0.99964188
       22908.560      0.99963179
       22908.600      0.99962100
       22908.640      0.99960971
       22908.680      0.99959828
       22908.720      0.99958714
       22908.760      0.99957677
       22908.800      0.99956759
       22908.840      0.99955980
       22908.880      0.99955323
       22908.920      0.99954709
       22908.960      0.99953992
       22909.000      0.99952987
       22909.040      0.99951494
       22909.080      0.99949336
       22909.120      0.99946351
       22909.160      0.99942336
       22909.200      0.99936734
       22909.240      0.99927744
       22909.280      0.99910719
       22909.320      0.99876457
       22909.360      0.99810673
       22909.400      0.99696108
       22909.440      0.99516849
       22909.480      0.99264489
       22909.520      0.98945002
       22909.560      0.98585936
       22909.600      0.98239875
       22909.640      0.97976329
       22909.680      0.97859340
       22909.720      0.97920267
       22909.760      0.98140051
       22909.800      0.98460846
       22909.840      0.98814062
       22909.880      0.99143731
       22909.920      0.99414175
       22909.960      0.99609653
       22910.000      0.99734143
       22910.040      0.99804719
       22910.080      0.99840249
       22910.120      0.99855496
       22910.160      0.99859921
       22910.200      0.99858737
       22910.240      0.99854504
       22910.280      0.99848385
       22910.320      0.99840909
       22910.360      0.99832331
       22910.400      0.99822785
       22910.440      0.99812331
       22910.480      0.99800951
       22910.520      0.99788539
       22910.560      0.99774916
       22910.600      0.99759860
       22910.640      0.99743119
       22910.680      0.99724414
       22910.720      0.99703424
       22910.760      0.99679762
       22910.800      0.99652956
       22910.840      0.99622427
       22910.880      0.99587442
       22910.920      0.99547080
       22910.960      0.99500172
       22911.000      0.99445186
       22911.040      0.99380124
       22911.080      0.99302403
       22911.120      0.99208630
       22911.160      0.99094393
       22911.200      0.98954141
       22911.240      0.98780951
       22911.280      0.98566479
       22911.320      0.98301665
       22911.360      0.97978087
       22911.400      0.97590130
       22911.440      0.97138429
       22911.480      0.96633916
       22911.520      0.96101063
       22911.560      0.95578648
       22911.600      0.95116719
       22911.640      0.94768403
       22911.680      0.94578582
       22911.720      0.94572923
       22911.760      0.94751178
       22911.800      0.95087029
       22911.840      0.95535125
       22911.880      0.96041941
       22911.920      0.96557174
       22911.960      0.97041505
       22912.000      0.97469950
       22912.040      0.97830987
       22912.080      0.98122983
       22912.120      0.98349863
       22912.160      0.98517744
       22912.200      0.98632171
       22912.240      0.98696474
       22912.280      0.98711309
       22912.320      0.98674977
       22912.360      0.98584212
       22912.400      0.98436045
       22912.440      0.98229902
       22912.480      0.97969465
       22912.520      0.97663570
       22912.560      0.97325709
       22912.600      0.96972481
       22912.640      0.96621023
       22912.680      0.96286331
       22912.720      0.95979508
       22912.760      0.95706925
       22912.800      0.95470639
       22912.840      0.95270395
       22912.880      0.95106424
       22912.920      0.94982804
       22912.960      0.94909733
       22913.000      0.94903119
       22913.040      0.94980882
       22913.080      0.95156763
       22913.120      0.95433710
       22913.160      0.95800122
       22913.200      0.96231107
       22913.240      0.96694095
       22913.280      0.97155729
       22913.320      0.97588263
       22913.360      0.97973574
       22913.400      0.98303528
       22913.440      0.98577944
       22913.480      0.98801767
       22913.520      0.98982372
       22913.560      0.99127538
       22913.600      0.99244444
       22913.640      0.99339204
       22913.680      0.99416724
       22913.720      0.99480828
       22913.760      0.99534404
       22913.800      0.99579643
       22913.840      0.99618247
       22913.880      0.99651548
       22913.920      0.99680549
       22913.960      0.99705957
       22914.000      0.99728276
       22914.040      0.99747895
       22914.080      0.99765147
       22914.120      0.99780339
       22914.160      0.99793763
       22914.200      0.99805701
       22914.240      0.99816419
       22914.280      0.99826153
       22914.320      0.99835090
       22914.360      0.99843360
       22914.400      0.99851041
       22914.440      0.99858187
       22914.480      0.99864834
       22914.520      0.99871016
       22914.560      0.99876759
       22914.600      0.99882093
       22914.640      0.99887045
       22914.680      0.99891641
       22914.720      0.99895909
       22914.760      0.99899874
       22914.800      0.99903564
       22914.840      0.99907003
       22914.880      0.99910218
       22914.920      0.99913233
       22914.960      0.99916076
       22915.000      0.99918768
       22915.040      0.99921332
       22915.080      0.99923786
       22915.120      0.99926138
       22915.160      0.99928391
       22915.200      0.99930538
       22915.240      0.99932570
       22915.280      0.99934478
       22915.320      0.99936250
       22915.360      0.99937877
       22915.400      0.99939354
       22915.440      0.99940679
       22915.480      0.99941865
       22915.520      0.99942943
       22915.560      0.99943963
       22915.600      0.99944973
       22915.640      0.99945979
       22915.680      0.99946897
       22915.720      0.99947443
       22915.760      0.99947002
       22915.800      0.99944419
       22915.840      0.99937528
       22915.880      0.99922278
       22915.920      0.99891502
       22915.960      0.99833898
       22916.000      0.99734558
       22916.040      0.99578700
       22916.080      0.99359270
       22916.120      0.99086570
       22916.160      0.98794516
       22916.200      0.98536557
       22916.240      0.98368240
       22916.280      0.98322625
       22916.320      0.98391183
       22916.360      0.98524218
       22916.400      0.98652483
       22916.440      0.98714119
       22916.480      0.98682233
       22916.520      0.98580465
       22916.560      0.98467709
       22916.600      0.98410931
       22916.640      0.98458892
       22916.680      0.98621071
       22916.720      0.98866915
       22916.760      0.99144305
       22916.800      0.99403016
       22916.840      0.99611212
       22916.880      0.99759402
       22916.920      0.99854506
       22916.960      0.99910501
       22917.000      0.99941175
       22917.040      0.99956660
       22917.080      0.99963609
       22917.120      0.99966307
       22917.160      0.99967352
       22917.200      0.99968035
       22917.240      0.99968801
       22917.280      0.99969668
       22917.320      0.99970507
       22917.360      0.99971205
       22917.400      0.99971709
       22917.440      0.99972019
       22917.480      0.99972162
       22917.520      0.99972179
       22917.560      0.99972117
       22917.600      0.99972021
       22917.640      0.99971927
       22917.680      0.99971857
       22917.720      0.99971817
       22917.760      0.99971801
       22917.800      0.99971797
       22917.840      0.99971790
       22917.880      0.99971762
       22917.920      0.99971697
       22917.960      0.99971582
       22918.000      0.99971405
       22918.040      0.99971162
       22918.080      0.99970849
       22918.120      0.99970469
       22918.160      0.99970023
       22918.200      0.99969514
       22918.240      0.99968941
       22918.280      0.99968300
       22918.320      0.99967575
       22918.360      0.99966739
       22918.400      0.99965748
       22918.440      0.99964546
       22918.480      0.99963073
       22918.520      0.99961262
       22918.560      0.99959047
       22918.600      0.99956352
       22918.640      0.99953091
       22918.680      0.99949147
       22918.720      0.99944338
       22918.760      0.99938350
       22918.800      0.99930609
       22918.840      0.99920039
       22918.880      0.99904748
       22918.920      0.99881768
       22918.960      0.99846719
       22919.000      0.99793145
       22919.040      0.99711910
       22919.080      0.99592204
       22919.120      0.99425226
       22919.160      0.99210902
       22919.200      0.98966643
       22919.240      0.98731257
       22919.280      0.98556900
       22919.320      0.98490708
       22919.360      0.98552160
       22919.400      0.98721257
       22919.440      0.98952252
       22919.480      0.99195782
       22919.520      0.99413408
       22919.560      0.99584424
       22919.600      0.99706983
       22919.640      0.99789977
       22919.680      0.99844603
       22919.720      0.99880418
       22919.760      0.99904299
       22919.800      0.99920616
       22919.840      0.99932016
       22919.880      0.99940176
       22919.920      0.99946225
       22919.960      0.99950910
       22920.000      0.99954671
       22920.040      0.99957744
       22920.080      0.99960255
       22920.120      0.99962294
       22920.160      0.99963949
       22920.200      0.99965327
       22920.240      0.99966526
       22920.280      0.99967594
       22920.320      0.99968437
       22920.360      0.99968674
       22920.400      0.99967425
       22920.440      0.99962982
       22920.480      0.99952094
       22920.520      0.99928564
       22920.560      0.99881093
       22920.600      0.99791436
       22920.640      0.99634899
       22920.680      0.99385220
       22920.720      0.99026632
       22920.760      0.98570816
       22920.800      0.98070056
       22920.840      0.97614380
       22920.880      0.97306790
       22920.920      0.97225488
       22920.960      0.97392217
       22921.000      0.97763067
       22921.040      0.98246734
       22921.080      0.98740829
       22921.120      0.99166939
       22921.160      0.99487714
       22921.200      0.99703000
       22921.240      0.99834033
       22921.280      0.99907618
       22921.320      0.99946137
       22921.360      0.99964587
       22921.400      0.99972290
       22921.440      0.99974945
       22921.480      0.99975759
       22921.520      0.99976120
       22921.560      0.99976339
       22921.600      0.99976301
       22921.640      0.99975911
       22921.680      0.99975327
       22921.720      0.99974821
       22921.760      0.99974313
       22921.800      0.99972599
       22921.840      0.99966288
       22921.880      0.99948745
       22921.920      0.99908938
       22921.960      0.99829209
       22922.000      0.99682031
       22922.040      0.99429594
       22922.080      0.99033343
       22922.120      0.98473931
       22922.160      0.97776622
       22922.200      0.97027879
       22922.240      0.96364901
       22922.280      0.95935777
       22922.320      0.95846474
       22922.360      0.96119065
       22922.400      0.96681322
       22922.440      0.97399149
       22922.480      0.98128904
       22922.520      0.98762074
       22922.560      0.99243449
       22922.600      0.99567511
       22922.640      0.99763393
       22922.680      0.99872178
       22922.720      0.99928447
       22922.760      0.99955758
       22922.800      0.99968426
       22922.840      0.99974233
       22922.880      0.99976996
       22922.920      0.99978443
       22922.960      0.99979308
       22923.000      0.99979891
       22923.040      0.99980316
       22923.080      0.99980642
       22923.120      0.99980903
       22923.160      0.99981118
       22923.200      0.99981299
       22923.240      0.99981453
       22923.280      0.99981586
       22923.320      0.99981703
       22923.360      0.99981805
       22923.400      0.99981897
       22923.440      0.99981979
       22923.480      0.99982052
       22923.520      0.99982119
       22923.560      0.99982179
       22923.600      0.99982232
       22923.640      0.99982279
       22923.680      0.99982322
       22923.720      0.99982359
       22923.760      0.99982392
       22923.800      0.99982421
       22923.840      0.99982447
       22923.880      0.99982469
       22923.920      0.99982488
       22923.960      0.99982505
       22924.000      0.99982519
       22924.040      0.99982529
       22924.080      0.99982537
       22924.120      0.99982541
       22924.160      0.99982542
