 #      wave           flux
       22900.000      0.99993264
       22900.040      0.99993452
       22900.080      0.99993514
       22900.120      0.99993509
       22900.160      0.99993469
       22900.200      0.99993413
       22900.240      0.99993351
       22900.280      0.99993286
       22900.320      0.99993220
       22900.360      0.99993154
       22900.400      0.99993088
       22900.440      0.99993022
       22900.480      0.99992956
       22900.520      0.99992889
       22900.560      0.99992823
       22900.600      0.99992756
       22900.640      0.99992689
       22900.680      0.99992622
       22900.720      0.99992555
       22900.760      0.99992487
       22900.800      0.99992420
       22900.840      0.99992352
       22900.880      0.99992284
       22900.920      0.99992215
       22900.960      0.99992147
       22901.000      0.99992078
       22901.040      0.99992009
       22901.080      0.99991940
       22901.120      0.99991870
       22901.160      0.99991800
       22901.200      0.99991730
       22901.240      0.99991659
       22901.280      0.99991589
       22901.320      0.99991517
       22901.360      0.99991446
       22901.400      0.99991374
       22901.440      0.99991302
       22901.480      0.99991229
       22901.520      0.99991156
       22901.560      0.99991082
       22901.600      0.99991009
       22901.640      0.99990934
       22901.680      0.99990860
       22901.720      0.99990784
       22901.760      0.99990709
       22901.800      0.99990633
       22901.840      0.99990556
       22901.880      0.99990479
       22901.920      0.99990402
       22901.960      0.99990323
       22902.000      0.99990245
       22902.040      0.99990166
       22902.080      0.99990086
       22902.120      0.99990006
       22902.160      0.99989925
       22902.200      0.99989844
       22902.240      0.99989762
       22902.280      0.99989680
       22902.320      0.99989596
       22902.360      0.99989513
       22902.400      0.99989428
       22902.440      0.99989344
       22902.480      0.99989258
       22902.520      0.99989172
       22902.560      0.99989085
       22902.600      0.99988997
       22902.640      0.99988909
       22902.680      0.99988820
       22902.720      0.99988730
       22902.760      0.99988640
       22902.800      0.99988549
       22902.840      0.99988457
       22902.880      0.99988364
       22902.920      0.99988271
       22902.960      0.99988177
       22903.000      0.99988082
       22903.040      0.99987986
       22903.080      0.99987889
       22903.120      0.99987791
       22903.160      0.99987692
       22903.200      0.99987592
       22903.240      0.99987490
       22903.280      0.99987388
       22903.320      0.99987284
       22903.360      0.99987178
       22903.400      0.99987072
       22903.440      0.99986963
       22903.480      0.99986853
       22903.520      0.99986742
       22903.560      0.99986629
       22903.600      0.99986514
       22903.640      0.99986397
       22903.680      0.99986278
       22903.720      0.99986157
       22903.760      0.99986035
       22903.800      0.99985910
       22903.840      0.99985783
       22903.880      0.99985654
       22903.920      0.99985523
       22903.960      0.99985389
       22904.000      0.99985253
       22904.040      0.99985114
       22904.080      0.99984973
       22904.120      0.99984830
       22904.160      0.99984684
       22904.200      0.99984535
       22904.240      0.99984383
       22904.280      0.99984228
       22904.320      0.99984071
       22904.360      0.99983910
       22904.400      0.99983747
       22904.440      0.99983580
       22904.480      0.99983411
       22904.520      0.99983238
       22904.560      0.99983062
       22904.600      0.99982882
       22904.640      0.99982699
       22904.680      0.99982513
       22904.720      0.99982323
       22904.760      0.99982130
       22904.800      0.99981933
       22904.840      0.99981732
       22904.880      0.99981528
       22904.920      0.99981319
       22904.960      0.99981107
       22905.000      0.99980891
       22905.040      0.99980671
       22905.080      0.99980446
       22905.120      0.99980218
       22905.160      0.99979985
       22905.200      0.99979748
       22905.240      0.99979507
       22905.280      0.99979261
       22905.320      0.99979011
       22905.360      0.99978757
       22905.400      0.99978497
       22905.440      0.99978233
       22905.480      0.99977965
       22905.520      0.99977692
       22905.560      0.99977413
       22905.600      0.99977130
       22905.640      0.99976842
       22905.680      0.99976549
       22905.720      0.99976251
       22905.760      0.99975948
       22905.800      0.99975639
       22905.840      0.99975325
       22905.880      0.99975006
       22905.920      0.99974681
       22905.960      0.99974351
       22906.000      0.99974015
       22906.040      0.99973672
       22906.080      0.99973324
       22906.120      0.99972969
       22906.160      0.99972608
       22906.200      0.99972240
       22906.240      0.99971865
       22906.280      0.99971483
       22906.320      0.99971094
       22906.360      0.99970698
       22906.400      0.99970294
       22906.440      0.99969882
       22906.480      0.99969463
       22906.520      0.99969035
       22906.560      0.99968599
       22906.600      0.99968155
       22906.640      0.99967702
       22906.680      0.99967240
       22906.720      0.99966770
       22906.760      0.99966290
       22906.800      0.99965801
       22906.840      0.99965303
       22906.880      0.99964795
       22906.920      0.99964277
       22906.960      0.99963749
       22907.000      0.99963211
       22907.040      0.99962663
       22907.080      0.99962105
       22907.120      0.99961535
       22907.160      0.99960955
       22907.200      0.99960364
       22907.240      0.99959762
       22907.280      0.99959148
       22907.320      0.99958522
       22907.360      0.99957883
       22907.400      0.99957230
       22907.440      0.99956561
       22907.480      0.99955876
       22907.520      0.99955173
       22907.560      0.99954450
       22907.600      0.99953706
       22907.640      0.99952939
       22907.680      0.99952148
       22907.720      0.99951330
       22907.760      0.99950485
       22907.800      0.99949610
       22907.840      0.99948705
       22907.880      0.99947768
       22907.920      0.99946797
       22907.960      0.99945790
       22908.000      0.99944747
       22908.040      0.99943665
       22908.080      0.99942543
       22908.120      0.99941379
       22908.160      0.99940172
       22908.200      0.99938920
       22908.240      0.99937622
       22908.280      0.99936276
       22908.320      0.99934880
       22908.360      0.99933433
       22908.400      0.99931934
       22908.440      0.99930380
       22908.480      0.99928771
       22908.520      0.99927105
       22908.560      0.99925379
       22908.600      0.99923593
       22908.640      0.99921746
       22908.680      0.99919834
       22908.720      0.99917857
       22908.760      0.99915812
       22908.800      0.99913697
       22908.840      0.99911508
       22908.880      0.99909241
       22908.920      0.99906892
       22908.960      0.99904456
       22909.000      0.99901928
       22909.040      0.99899303
       22909.080      0.99896576
       22909.120      0.99893742
       22909.160      0.99890795
       22909.200      0.99887732
       22909.240      0.99884546
       22909.280      0.99881234
       22909.320      0.99877789
       22909.360      0.99874206
       22909.400      0.99870481
       22909.440      0.99866606
       22909.480      0.99862573
       22909.520      0.99858371
       22909.560      0.99853983
       22909.600      0.99849386
       22909.640      0.99844554
       22909.680      0.99839457
       22909.720      0.99834066
       22909.760      0.99828350
       22909.800      0.99822280
       22909.840      0.99815824
       22909.880      0.99808951
       22909.920      0.99801632
       22909.960      0.99793835
       22910.000      0.99785529
       22910.040      0.99776684
       22910.080      0.99767269
       22910.120      0.99757251
       22910.160      0.99746596
       22910.200      0.99735266
       22910.240      0.99723212
       22910.280      0.99710373
       22910.320      0.99696667
       22910.360      0.99681999
       22910.400      0.99666265
       22910.440      0.99649356
       22910.480      0.99631159
       22910.520      0.99611554
       22910.560      0.99590410
       22910.600      0.99567569
       22910.640      0.99542836
       22910.680      0.99515955
       22910.720      0.99486628
       22910.760      0.99454529
       22910.800      0.99419318
       22910.840      0.99380645
       22910.880      0.99338149
       22910.920      0.99291449
       22910.960      0.99240126
       22911.000      0.99183696
       22911.040      0.99121590
       22911.080      0.99053167
       22911.120      0.98977761
       22911.160      0.98894724
       22911.200      0.98803468
       22911.240      0.98703502
       22911.280      0.98594506
       22911.320      0.98476445
       22911.360      0.98349823
       22911.400      0.98216034
       22911.440      0.98077569
       22911.480      0.97938135
       22911.520      0.97802788
       22911.560      0.97677991
       22911.600      0.97571338
       22911.640      0.97490471
       22911.680      0.97441724
       22911.720      0.97428765
       22911.760      0.97451330
       22911.800      0.97505345
       22911.840      0.97584374
       22911.880      0.97680863
       22911.920      0.97786954
       22911.960      0.97895113
       22912.000      0.97998792
       22912.040      0.98093057
       22912.080      0.98174476
       22912.120      0.98240501
       22912.160      0.98289020
       22912.200      0.98318100
       22912.240      0.98325794
       22912.280      0.98310024
       22912.320      0.98268601
       22912.360      0.98199568
       22912.400      0.98101775
       22912.440      0.97975494
       22912.480      0.97823003
       22912.520      0.97648986
       22912.560      0.97460529
       22912.600      0.97266703
       22912.640      0.97077735
       22912.680      0.96904028
       22912.720      0.96755161
       22912.760      0.96639035
       22912.800      0.96561247
       22912.840      0.96524837
       22912.880      0.96530342
       22912.920      0.96576253
       22912.960      0.96659553
       22913.000      0.96776062
       22913.040      0.96920809
       22913.080      0.97088141
       22913.120      0.97271735
       22913.160      0.97464717
       22913.200      0.97660207
       22913.240      0.97852077
       22913.280      0.98035450
       22913.320      0.98206939
       22913.360      0.98364772
       22913.400      0.98508439
       22913.440      0.98638222
       22913.480      0.98754868
       22913.520      0.98859369
       22913.560      0.98952831
       22913.600      0.99036389
       22913.640      0.99111157
       22913.680      0.99178185
       22913.720      0.99238413
       22913.760      0.99292646
       22913.800      0.99341588
       22913.840      0.99385865
       22913.880      0.99426031
       22913.920      0.99462548
       22913.960      0.99495785
       22914.000      0.99526051
       22914.040      0.99553619
       22914.080      0.99578746
       22914.120      0.99601679
       22914.160      0.99622660
       22914.200      0.99641921
       22914.240      0.99659682
       22914.280      0.99676132
       22914.320      0.99691424
       22914.360      0.99705671
       22914.400      0.99718962
       22914.440      0.99731373
       22914.480      0.99742973
       22914.520      0.99753827
       22914.560      0.99764002
       22914.600      0.99773556
       22914.640      0.99782548
       22914.680      0.99791026
       22914.720      0.99799028
       22914.760      0.99806584
       22914.800      0.99813717
       22914.840      0.99820448
       22914.880      0.99826797
       22914.920      0.99832782
       22914.960      0.99838423
       22915.000      0.99843738
       22915.040      0.99848745
       22915.080      0.99853465
       22915.120      0.99857914
       22915.160      0.99862112
       22915.200      0.99866078
       22915.240      0.99869829
       22915.280      0.99873386
       22915.320      0.99876765
       22915.360      0.99879985
       22915.400      0.99883062
       22915.440      0.99886011
       22915.480      0.99888844
       22915.520      0.99891568
       22915.560      0.99894189
       22915.600      0.99896711
       22915.640      0.99899138
       22915.680      0.99901472
       22915.720      0.99903718
       22915.760      0.99905878
       22915.800      0.99907956
       22915.840      0.99909954
       22915.880      0.99911875
       22915.920      0.99913723
       22915.960      0.99915502
       22916.000      0.99917213
       22916.040      0.99918860
       22916.080      0.99920446
       22916.120      0.99921975
       22916.160      0.99923448
       22916.200      0.99924870
       22916.240      0.99926242
       22916.280      0.99927566
       22916.320      0.99928844
       22916.360      0.99930077
       22916.400      0.99931267
       22916.440      0.99932414
       22916.480      0.99933521
       22916.520      0.99934587
       22916.560      0.99935615
       22916.600      0.99936606
       22916.640      0.99937560
       22916.680      0.99938479
       22916.720      0.99939364
       22916.760      0.99940217
       22916.800      0.99941037
       22916.840      0.99941828
       22916.880      0.99942589
       22916.920      0.99943322
       22916.960      0.99944028
       22917.000      0.99944706
       22917.040      0.99945359
       22917.080      0.99945984
       22917.120      0.99946581
       22917.160      0.99947149
       22917.200      0.99947688
       22917.240      0.99948195
       22917.280      0.99948671
       22917.320      0.99949113
       22917.360      0.99949522
       22917.400      0.99949895
       22917.440      0.99950231
       22917.480      0.99950531
       22917.520      0.99950791
       22917.560      0.99951012
       22917.600      0.99951192
       22917.640      0.99951329
       22917.680      0.99951424
       22917.720      0.99951474
       22917.760      0.99951477
       22917.800      0.99951432
       22917.840      0.99951335
       22917.880      0.99951181
       22917.920      0.99950967
       22917.960      0.99950689
       22918.000      0.99950341
       22918.040      0.99949918
       22918.080      0.99949413
       22918.120      0.99948819
       22918.160      0.99948121
       22918.200      0.99947300
       22918.240      0.99946328
       22918.280      0.99945169
       22918.320      0.99943785
       22918.360      0.99942137
       22918.400      0.99940183
       22918.440      0.99937876
       22918.480      0.99935166
       22918.520      0.99931989
       22918.560      0.99928257
       22918.600      0.99923841
       22918.640      0.99918563
       22918.680      0.99912193
       22918.720      0.99904423
       22918.760      0.99894828
       22918.800      0.99882797
       22918.840      0.99867520
       22918.880      0.99847967
       22918.920      0.99822842
       22918.960      0.99790449
       22919.000      0.99748638
       22919.040      0.99695170
       22919.080      0.99628517
       22919.120      0.99549048
       22919.160      0.99460686
       22919.200      0.99372085
       22919.240      0.99295263
       22919.280      0.99242758
       22919.320      0.99224463
       22919.360      0.99244057
       22919.400      0.99296913
       22919.440      0.99372610
       22919.480      0.99459140
       22919.520      0.99546113
       22919.560      0.99625878
       22919.600      0.99693856
       22919.640      0.99748750
       22919.680      0.99791731
       22919.720      0.99825048
       22919.760      0.99850947
       22919.800      0.99871247
       22919.840      0.99887334
       22919.880      0.99900205
       22919.920      0.99910562
       22919.960      0.99918933
       22920.000      0.99925745
       22920.040      0.99931365
       22920.080      0.99936097
       22920.120      0.99940169
       22920.160      0.99943730
       22920.200      0.99946873
       22920.240      0.99949662
       22920.280      0.99952146
       22920.320      0.99954361
       22920.360      0.99956340
       22920.400      0.99958107
       22920.440      0.99959684
       22920.480      0.99961088
       22920.520      0.99962338
       22920.560      0.99963451
       22920.600      0.99964442
       22920.640      0.99965329
       22920.680      0.99966128
       22920.720      0.99966854
       22920.760      0.99967524
       22920.800      0.99968151
       22920.840      0.99968746
       22920.880      0.99969317
       22920.920      0.99969868
       22920.960      0.99970400
       22921.000      0.99970913
       22921.040      0.99971409
       22921.080      0.99971886
       22921.120      0.99972345
       22921.160      0.99972784
       22921.200      0.99973205
       22921.240      0.99973606
       22921.280      0.99973987
       22921.320      0.99974348
       22921.360      0.99974690
       22921.400      0.99975012
       22921.440      0.99975316
       22921.480      0.99975601
       22921.520      0.99975870
       22921.560      0.99976121
       22921.600      0.99976357
       22921.640      0.99976578
       22921.680      0.99976785
       22921.720      0.99976979
       22921.760      0.99977160
       22921.800      0.99977329
       22921.840      0.99977487
       22921.880      0.99977634
       22921.920      0.99977773
       22921.960      0.99977902
       22922.000      0.99978024
       22922.040      0.99978138
       22922.080      0.99978247
       22922.120      0.99978349
       22922.160      0.99978447
       22922.200      0.99978541
       22922.240      0.99978631
       22922.280      0.99978719
       22922.320      0.99978805
       22922.360      0.99978889
       22922.400      0.99978972
       22922.440      0.99979053
       22922.480      0.99979133
       22922.520      0.99979212
       22922.560      0.99979289
       22922.600      0.99979366
       22922.640      0.99979441
       22922.680      0.99979515
       22922.720      0.99979587
       22922.760      0.99979658
       22922.800      0.99979728
       22922.840      0.99979796
       22922.880      0.99979863
       22922.920      0.99979928
       22922.960      0.99979992
       22923.000      0.99980055
       22923.040      0.99980116
       22923.080      0.99980176
       22923.120      0.99980234
       22923.160      0.99980290
       22923.200      0.99980345
       22923.240      0.99980399
       22923.280      0.99980451
       22923.320      0.99980502
       22923.360      0.99980550
       22923.400      0.99980598
       22923.440      0.99980644
       22923.480      0.99980688
       22923.520      0.99980730
       22923.560      0.99980771
       22923.600      0.99980811
       22923.640      0.99980849
       22923.680      0.99980885
       22923.720      0.99980920
       22923.760      0.99980953
       22923.800      0.99980985
       22923.840      0.99981015
       22923.880      0.99981044
       22923.920      0.99981071
       22923.960      0.99981097
       22924.000      0.99981121
       22924.040      0.99981144
       22924.080      0.99981165
       22924.120      0.99981184
       22924.160      0.99981203
