 #      wave           flux
       22900.000      0.99994662
       22900.040      0.99994844
       22900.080      0.99994904
       22900.120      0.99994899
       22900.160      0.99994859
       22900.200      0.99994805
       22900.240      0.99994746
       22900.280      0.99994684
       22900.320      0.99994623
       22900.360      0.99994563
       22900.400      0.99994503
       22900.440      0.99994444
       22900.480      0.99994384
       22900.520      0.99994323
       22900.560      0.99994255
       22900.600      0.99994179
       22900.640      0.99994090
       22900.680      0.99993982
       22900.720      0.99993852
       22900.760      0.99993695
       22900.800      0.99993505
       22900.840      0.99993280
       22900.880      0.99993015
       22900.920      0.99992709
       22900.960      0.99992365
       22901.000      0.99991991
       22901.040      0.99991602
       22901.080      0.99991216
       22901.120      0.99990845
       22901.160      0.99990489
       22901.200      0.99990121
       22901.240      0.99989659
       22901.280      0.99988949
       22901.320      0.99987744
       22901.360      0.99985634
       22901.400      0.99981834
       22901.440      0.99974717
       22901.480      0.99960939
       22901.520      0.99934061
       22901.560      0.99882769
       22901.600      0.99789280
       22901.640      0.99629702
       22901.680      0.99380733
       22901.720      0.99035142
       22901.760      0.98614508
       22901.800      0.98168847
       22901.840      0.97772133
       22901.880      0.97509801
       22901.920      0.97450210
       22901.960      0.97612348
       22902.000      0.97954821
       22902.040      0.98395494
       22902.080      0.98843816
       22902.120      0.99230784
       22902.160      0.99523553
       22902.200      0.99722030
       22902.240      0.99844822
       22902.280      0.99915095
       22902.320      0.99951970
       22902.360      0.99969333
       22902.400      0.99976762
       22902.440      0.99980047
       22902.480      0.99981859
       22902.520      0.99983003
       22902.560      0.99983511
       22902.600      0.99983310
       22902.640      0.99982363
       22902.680      0.99980219
       22902.720      0.99975146
       22902.760      0.99962994
       22902.800      0.99936548
       22902.840      0.99885676
       22902.880      0.99797238
       22902.920      0.99655331
       22902.960      0.99445568
       22903.000      0.99164560
       22903.040      0.98829502
       22903.080      0.98483105
       22903.120      0.98188142
       22903.160      0.98009634
       22903.200      0.97991548
       22903.240      0.98137144
       22903.280      0.98406633
       22903.320      0.98738325
       22903.360      0.99072833
       22903.400      0.99368466
       22903.440      0.99602062
       22903.480      0.99766430
       22903.520      0.99869211
       22903.560      0.99926948
       22903.600      0.99956654
       22903.640      0.99971389
       22903.680      0.99979092
       22903.720      0.99983592
       22903.760      0.99986382
       22903.800      0.99988025
       22903.840      0.99988810
       22903.880      0.99988969
       22903.920      0.99988730
       22903.960      0.99988309
       22904.000      0.99987883
       22904.040      0.99987560
       22904.080      0.99987372
       22904.120      0.99987293
       22904.160      0.99987272
       22904.200      0.99987246
       22904.240      0.99987163
       22904.280      0.99986997
       22904.320      0.99986759
       22904.360      0.99986500
       22904.400      0.99986289
       22904.440      0.99986198
       22904.480      0.99986284
       22904.520      0.99986559
       22904.560      0.99986957
       22904.600      0.99987313
       22904.640      0.99987393
       22904.680      0.99986940
       22904.720      0.99985733
       22904.760      0.99983637
       22904.800      0.99980618
       22904.840      0.99976613
       22904.880      0.99970893
       22904.920      0.99960625
       22904.960      0.99938874
       22905.000      0.99893598
       22905.040      0.99810137
       22905.080      0.99675893
       22905.120      0.99485396
       22905.160      0.99244068
       22905.200      0.98971772
       22905.240      0.98706996
       22905.280      0.98503732
       22905.320      0.98414131
       22905.360      0.98465279
       22905.400      0.98643220
       22905.440      0.98901436
       22905.480      0.99182003
       22905.520      0.99436893
       22905.560      0.99639203
       22905.600      0.99782476
       22905.640      0.99873787
       22905.680      0.99926003
       22905.720      0.99952794
       22905.760      0.99965643
       22905.800      0.99972015
       22905.840      0.99975628
       22905.880      0.99977965
       22905.920      0.99979518
       22905.960      0.99980469
       22906.000      0.99980930
       22906.040      0.99981016
       22906.080      0.99980846
       22906.120      0.99980542
       22906.160      0.99980207
       22906.200      0.99979910
       22906.240      0.99979678
       22906.280      0.99979510
       22906.320      0.99979395
       22906.360      0.99979313
       22906.400      0.99979244
       22906.440      0.99979170
       22906.480      0.99979081
       22906.520      0.99978969
       22906.560      0.99978833
       22906.600      0.99978673
       22906.640      0.99978487
       22906.680      0.99978278
       22906.720      0.99978045
       22906.760      0.99977790
       22906.800      0.99977514
       22906.840      0.99977218
       22906.880      0.99976902
       22906.920      0.99976567
       22906.960      0.99976215
       22907.000      0.99975847
       22907.040      0.99975462
       22907.080      0.99975061
       22907.120      0.99974646
       22907.160      0.99974215
       22907.200      0.99973770
       22907.240      0.99973312
       22907.280      0.99972840
       22907.320      0.99972355
       22907.360      0.99971858
       22907.400      0.99971349
       22907.440      0.99970828
       22907.480      0.99970296
       22907.520      0.99969753
       22907.560      0.99969199
       22907.600      0.99968635
       22907.640      0.99968060
       22907.680      0.99967475
       22907.720      0.99966880
       22907.760      0.99966275
       22907.800      0.99965659
       22907.840      0.99965033
       22907.880      0.99964398
       22907.920      0.99963751
       22907.960      0.99963095
       22908.000      0.99962428
       22908.040      0.99961748
       22908.080      0.99961055
       22908.120      0.99960344
       22908.160      0.99959610
       22908.200      0.99958847
       22908.240      0.99958049
       22908.280      0.99957209
       22908.320      0.99956321
       22908.360      0.99955378
       22908.400      0.99954374
       22908.440      0.99953302
       22908.480      0.99952156
       22908.520      0.99950933
       22908.560      0.99949633
       22908.600      0.99948263
       22908.640      0.99946841
       22908.680      0.99945400
       22908.720      0.99943981
       22908.760      0.99942626
       22908.800      0.99941371
       22908.840      0.99940229
       22908.880      0.99939172
       22908.920      0.99938103
       22908.960      0.99936854
       22909.000      0.99935212
       22909.040      0.99932951
       22909.080      0.99929858
       22909.120      0.99925740
       22909.160      0.99920346
       22909.200      0.99913037
       22909.240      0.99901854
       22909.280      0.99881876
       22909.320      0.99843528
       22909.360      0.99772077
       22909.400      0.99649729
       22909.440      0.99461347
       22909.480      0.99202622
       22909.520      0.98883927
       22909.560      0.98532482
       22909.600      0.98196211
       22909.640      0.97939619
       22909.680      0.97823951
       22909.720      0.97880615
       22909.760      0.98092232
       22909.800      0.98404205
       22909.840      0.98751111
       22909.880      0.99078335
       22909.920      0.99349789
       22909.960      0.99548490
       22910.000      0.99677000
       22910.040      0.99751223
       22910.080      0.99789388
       22910.120      0.99806016
       22910.160      0.99810600
       22910.200      0.99808630
       22910.240      0.99803004
       22910.280      0.99795120
       22910.320      0.99785627
       22910.360      0.99774828
       22910.400      0.99762879
       22910.440      0.99749849
       22910.480      0.99735730
       22910.520      0.99720436
       22910.560      0.99703820
       22910.600      0.99685691
       22910.640      0.99665840
       22910.680      0.99644031
       22910.720      0.99620004
       22910.760      0.99593461
       22910.800      0.99564056
       22910.840      0.99531399
       22910.880      0.99495039
       22910.920      0.99454462
       22910.960      0.99409086
       22911.000      0.99358241
       22911.040      0.99301146
       22911.080      0.99236874
       22911.120      0.99164327
       22911.160      0.99082281
       22911.200      0.98989583
       22911.240      0.98885408
       22911.280      0.98769416
       22911.320      0.98641735
       22911.360      0.98502952
       22911.400      0.98354286
       22911.440      0.98198039
       22911.480      0.98038384
       22911.520      0.97882075
       22911.560      0.97737957
       22911.600      0.97615842
       22911.640      0.97525385
       22911.680      0.97474848
       22911.720      0.97469374
       22911.760      0.97509084
       22911.800      0.97588947
       22911.840      0.97700486
       22911.880      0.97833608
       22911.920      0.97978321
       22911.960      0.98125984
       22912.000      0.98269760
       22912.040      0.98404733
       22912.080      0.98527798
       22912.120      0.98637456
       22912.160      0.98733311
       22912.200      0.98815545
       22912.240      0.98884646
       22912.280      0.98941279
       22912.320      0.98986149
       22912.360      0.99019874
       22912.400      0.99042915
       22912.440      0.99055589
       22912.480      0.99058080
       22912.520      0.99050450
       22912.560      0.99032640
       22912.600      0.99004486
       22912.640      0.98965752
       22912.680      0.98916233
       22912.720      0.98855951
       22912.760      0.98785527
       22912.800      0.98706630
       22912.840      0.98622110
       22912.880      0.98535776
       22912.920      0.98452301
       22912.960      0.98377309
       22913.000      0.98317252
       22913.040      0.98278617
       22913.080      0.98266765
       22913.120      0.98284438
       22913.160      0.98330539
       22913.200      0.98400737
       22913.240      0.98488986
       22913.280      0.98588806
       22913.320      0.98694308
       22913.360      0.98800823
       22913.400      0.98904770
       22913.440      0.99003386
       22913.480      0.99094675
       22913.520      0.99177550
       22913.560      0.99251839
       22913.600      0.99317990
       22913.640      0.99376758
       22913.680      0.99428991
       22913.720      0.99475488
       22913.760      0.99516947
       22913.800      0.99553981
       22913.840      0.99587134
       22913.880      0.99616879
       22913.920      0.99643603
       22913.960      0.99667620
       22914.000      0.99689204
       22914.040      0.99708604
       22914.080      0.99726058
       22914.120      0.99741798
       22914.160      0.99756048
       22914.200      0.99769020
       22914.240      0.99780906
       22914.280      0.99791860
       22914.320      0.99801997
       22914.360      0.99811398
       22914.400      0.99820131
       22914.440      0.99828252
       22914.480      0.99835814
       22914.520      0.99842867
       22914.560      0.99849459
       22914.600      0.99855637
       22914.640      0.99861438
       22914.680      0.99866894
       22914.720      0.99872029
       22914.760      0.99876861
       22914.800      0.99881406
       22914.840      0.99885679
       22914.880      0.99889694
       22914.920      0.99893466
       22914.960      0.99897007
       22915.000      0.99900332
       22915.040      0.99903455
       22915.080      0.99906390
       22915.120      0.99909150
       22915.160      0.99911750
       22915.200      0.99914203
       22915.240      0.99916523
       22915.280      0.99918724
       22915.320      0.99920819
       22915.360      0.99922819
       22915.400      0.99924735
       22915.440      0.99926576
       22915.480      0.99928344
       22915.520      0.99930045
       22915.560      0.99931681
       22915.600      0.99933252
       22915.640      0.99934762
       22915.680      0.99936211
       22915.720      0.99937602
       22915.760      0.99938936
       22915.800      0.99940214
       22915.840      0.99941439
       22915.880      0.99942611
       22915.920      0.99943734
       22915.960      0.99944807
       22916.000      0.99945833
       22916.040      0.99946813
       22916.080      0.99947750
       22916.120      0.99948644
       22916.160      0.99949498
       22916.200      0.99950313
       22916.240      0.99951090
       22916.280      0.99951833
       22916.320      0.99952542
       22916.360      0.99953219
       22916.400      0.99953866
       22916.440      0.99954486
       22916.480      0.99955079
       22916.520      0.99955647
       22916.560      0.99956193
       22916.600      0.99956719
       22916.640      0.99957225
       22916.680      0.99957715
       22916.720      0.99958189
       22916.760      0.99958649
       22916.800      0.99959098
       22916.840      0.99959537
       22916.880      0.99959967
       22916.920      0.99960389
       22916.960      0.99960803
       22917.000      0.99961209
       22917.040      0.99961604
       22917.080      0.99961989
       22917.120      0.99962360
       22917.160      0.99962716
       22917.200      0.99963055
       22917.240      0.99963375
       22917.280      0.99963675
       22917.320      0.99963953
       22917.360      0.99964206
       22917.400      0.99964433
       22917.440      0.99964632
       22917.480      0.99964802
       22917.520      0.99964940
       22917.560      0.99965044
       22917.600      0.99965113
       22917.640      0.99965145
       22917.680      0.99965139
       22917.720      0.99965094
       22917.760      0.99965008
       22917.800      0.99964883
       22917.840      0.99964716
       22917.880      0.99964510
       22917.920      0.99964262
       22917.960      0.99963971
       22918.000      0.99963637
       22918.040      0.99963255
       22918.080      0.99962816
       22918.120      0.99962307
       22918.160      0.99961709
       22918.200      0.99961001
       22918.240      0.99960158
       22918.280      0.99959157
       22918.320      0.99957972
       22918.360      0.99956573
       22918.400      0.99954926
       22918.440      0.99952984
       22918.480      0.99950685
       22918.520      0.99947939
       22918.560      0.99944637
       22918.600      0.99940640
       22918.640      0.99935769
       22918.680      0.99929773
       22918.720      0.99922302
       22918.760      0.99912875
       22918.800      0.99900801
       22918.840      0.99885043
       22918.880      0.99864125
       22918.920      0.99836307
       22918.960      0.99800020
       22919.000      0.99754464
       22919.040      0.99700384
       22919.080      0.99640594
       22919.120      0.99579490
       22919.160      0.99522105
       22919.200      0.99473205
       22919.240      0.99436436
       22919.280      0.99413837
       22919.320      0.99406124
       22919.360      0.99413361
       22919.400      0.99435436
       22919.440      0.99471709
       22919.480      0.99520289
       22919.520      0.99577582
       22919.560      0.99638751
       22919.600      0.99698663
       22919.640      0.99752889
       22919.680      0.99798688
       22919.720      0.99835395
       22919.760      0.99863796
       22919.800      0.99885374
       22919.840      0.99901737
       22919.880      0.99914243
       22919.920      0.99923904
       22919.960      0.99931468
       22920.000      0.99937497
       22920.040      0.99942384
       22920.080      0.99946373
       22920.120      0.99949606
       22920.160      0.99952184
       22920.200      0.99954208
       22920.240      0.99955804
       22920.280      0.99957099
       22920.320      0.99958155
       22920.360      0.99958838
       22920.400      0.99958604
       22920.440      0.99956229
       22920.480      0.99949513
       22920.520      0.99934733
       22920.560      0.99905612
       22920.600      0.99852048
       22920.640      0.99760228
       22920.680      0.99615727
       22920.720      0.99410043
       22920.760      0.99150067
       22920.800      0.98865256
       22920.840      0.98606235
       22920.880      0.98431338
       22920.920      0.98385247
       22920.960      0.98480407
       22921.000      0.98691597
       22921.040      0.98966934
       22921.080      0.99248503
       22921.120      0.99492233
       22921.160      0.99677068
       22921.200      0.99802540
       22921.240      0.99880247
       22921.280      0.99924981
       22921.320      0.99949118
       22921.360      0.99961125
       22921.400      0.99966437
       22921.440      0.99968489
       22921.480      0.99969277
       22921.520      0.99969689
       22921.560      0.99969943
       22921.600      0.99969975
       22921.640      0.99969710
       22921.680      0.99969199
       22921.720      0.99968548
       22921.760      0.99967640
       22921.800      0.99965695
       22921.840      0.99960658
       22921.880      0.99948602
       22921.920      0.99923101
       22921.960      0.99873983
       22922.000      0.99785574
       22922.040      0.99636644
       22922.080      0.99405853
       22922.120      0.99082673
       22922.160      0.98681508
       22922.200      0.98251083
       22922.240      0.97869722
       22922.280      0.97623319
       22922.320      0.97573965
       22922.360      0.97733332
       22922.400      0.98055518
       22922.440      0.98462135
       22922.480      0.98875214
       22922.520      0.99239455
       22922.560      0.99524846
       22922.600      0.99722859
       22922.640      0.99843315
       22922.680      0.99907487
       22922.720      0.99938628
       22922.760      0.99954118
       22922.800      0.99963126
       22922.840      0.99969231
       22922.880      0.99973453
       22922.920      0.99976087
       22922.960      0.99977374
       22923.000      0.99977635
       22923.040      0.99977253
       22923.080      0.99976616
       22923.120      0.99976035
       22923.160      0.99975686
       22923.200      0.99975619
       22923.240      0.99975803
       22923.280      0.99976168
       22923.320      0.99976629
       22923.360      0.99977110
       22923.400      0.99977552
       22923.440      0.99977924
       22923.480      0.99978215
       22923.520      0.99978427
       22923.560      0.99978564
       22923.600      0.99978638
       22923.640      0.99978657
       22923.680      0.99978632
       22923.720      0.99978575
       22923.760      0.99978495
       22923.800      0.99978403
       22923.840      0.99978308
       22923.880      0.99978218
       22923.920      0.99978139
       22923.960      0.99978073
       22924.000      0.99978020
       22924.040      0.99977980
       22924.080      0.99977950
       22924.120      0.99977930
       22924.160      0.99977917
