 #      wave           flux
       22900.000      0.99995672
       22900.040      0.99995815
       22900.080      0.99995834
       22900.120      0.99995786
       22900.160      0.99995706
       22900.200      0.99995614
       22900.240      0.99995519
       22900.280      0.99995427
       22900.320      0.99995339
       22900.360      0.99995258
       22900.400      0.99995184
       22900.440      0.99995117
       22900.480      0.99995055
       22900.520      0.99994999
       22900.560      0.99994943
       22900.600      0.99994884
       22900.640      0.99994816
       22900.680      0.99994734
       22900.720      0.99994631
       22900.760      0.99994502
       22900.800      0.99994341
       22900.840      0.99994144
       22900.880      0.99993906
       22900.920      0.99993626
       22900.960      0.99993307
       22901.000      0.99992963
       22901.040      0.99992613
       22901.080      0.99992282
       22901.120      0.99991992
       22901.160      0.99991750
       22901.200      0.99991532
       22901.240      0.99991262
       22901.280      0.99990799
       22901.320      0.99989948
       22901.360      0.99988464
       22901.400      0.99986016
       22901.440      0.99982065
       22901.480      0.99975608
       22901.520      0.99964675
       22901.560      0.99945474
       22901.600      0.99911488
       22901.640      0.99854064
       22901.680      0.99765879
       22901.720      0.99645550
       22901.760      0.99500603
       22901.800      0.99347490
       22901.840      0.99210958
       22901.880      0.99120325
       22901.920      0.99099523
       22901.960      0.99155339
       22902.000      0.99273109
       22902.040      0.99424459
       22902.080      0.99578428
       22902.120      0.99711781
       22902.160      0.99813673
       22902.200      0.99883892
       22902.240      0.99928386
       22902.280      0.99954731
       22902.320      0.99969295
       22902.360      0.99976794
       22902.400      0.99980523
       22902.440      0.99982483
       22902.480      0.99983581
       22902.520      0.99984074
       22902.560      0.99983963
       22902.600      0.99983217
       22902.640      0.99981755
       22902.680      0.99979094
       22902.720      0.99973733
       22902.760      0.99962323
       22902.800      0.99939238
       22902.840      0.99896775
       22902.880      0.99825253
       22902.920      0.99713398
       22902.960      0.99551517
       22903.000      0.99338269
       22903.040      0.99087409
       22903.080      0.98830600
       22903.120      0.98613063
       22903.160      0.98481028
       22903.200      0.98465570
       22903.240      0.98570438
       22903.280      0.98770556
       22903.320      0.99022097
       22903.360      0.99278102
       22903.400      0.99502611
       22903.440      0.99677504
       22903.480      0.99800893
       22903.520      0.99880827
       22903.560      0.99929086
       22903.600      0.99956769
       22903.640      0.99972076
       22903.680      0.99980162
       22903.720      0.99984103
       22903.760      0.99985790
       22903.800      0.99986414
       22903.840      0.99986690
       22903.880      0.99986954
       22903.920      0.99987308
       22903.960      0.99987740
       22904.000      0.99988195
       22904.040      0.99988616
       22904.080      0.99988970
       22904.120      0.99989246
       22904.160      0.99989444
       22904.200      0.99989572
       22904.240      0.99989641
       22904.280      0.99989662
       22904.320      0.99989647
       22904.360      0.99989609
       22904.400      0.99989558
       22904.440      0.99989502
       22904.480      0.99989446
       22904.520      0.99989391
       22904.560      0.99989338
       22904.600      0.99989287
       22904.640      0.99989237
       22904.680      0.99989187
       22904.720      0.99989135
       22904.760      0.99989082
       22904.800      0.99989026
       22904.840      0.99988966
       22904.880      0.99988902
       22904.920      0.99988834
       22904.960      0.99988762
       22905.000      0.99988685
       22905.040      0.99988603
       22905.080      0.99988517
       22905.120      0.99988426
       22905.160      0.99988331
       22905.200      0.99988231
       22905.240      0.99988126
       22905.280      0.99988016
       22905.320      0.99987902
       22905.360      0.99987782
       22905.400      0.99987658
       22905.440      0.99987529
       22905.480      0.99987395
       22905.520      0.99987256
       22905.560      0.99987112
       22905.600      0.99986963
       22905.640      0.99986809
       22905.680      0.99986650
       22905.720      0.99986487
       22905.760      0.99986318
       22905.800      0.99986145
       22905.840      0.99985968
       22905.880      0.99985786
       22905.920      0.99985600
       22905.960      0.99985411
       22906.000      0.99985217
       22906.040      0.99985020
       22906.080      0.99984819
       22906.120      0.99984615
       22906.160      0.99984407
       22906.200      0.99984197
       22906.240      0.99983983
       22906.280      0.99983767
       22906.320      0.99983548
       22906.360      0.99983326
       22906.400      0.99983102
       22906.440      0.99982876
       22906.480      0.99982647
       22906.520      0.99982416
       22906.560      0.99982181
       22906.600      0.99981944
       22906.640      0.99981702
       22906.680      0.99981457
       22906.720      0.99981208
       22906.760      0.99980953
       22906.800      0.99980694
       22906.840      0.99980429
       22906.880      0.99980158
       22906.920      0.99979881
       22906.960      0.99979598
       22907.000      0.99979307
       22907.040      0.99979009
       22907.080      0.99978704
       22907.120      0.99978390
       22907.160      0.99978068
       22907.200      0.99977737
       22907.240      0.99977397
       22907.280      0.99977047
       22907.320      0.99976687
       22907.360      0.99976317
       22907.400      0.99975935
       22907.440      0.99975541
       22907.480      0.99975136
       22907.520      0.99974717
       22907.560      0.99974285
       22907.600      0.99973839
       22907.640      0.99973379
       22907.680      0.99972904
       22907.720      0.99972413
       22907.760      0.99971906
       22907.800      0.99971383
       22907.840      0.99970842
       22907.880      0.99970284
       22907.920      0.99969707
       22907.960      0.99969112
       22908.000      0.99968498
       22908.040      0.99967864
       22908.080      0.99967211
       22908.120      0.99966540
       22908.160      0.99965851
       22908.200      0.99965146
       22908.240      0.99964427
       22908.280      0.99963695
       22908.320      0.99962953
       22908.360      0.99962200
       22908.400      0.99961439
       22908.440      0.99960668
       22908.480      0.99959884
       22908.520      0.99959079
       22908.560      0.99958240
       22908.600      0.99957350
       22908.640      0.99956393
       22908.680      0.99955348
       22908.720      0.99954199
       22908.760      0.99952929
       22908.800      0.99951525
       22908.840      0.99949983
       22908.880      0.99948312
       22908.920      0.99946546
       22908.960      0.99944740
       22909.000      0.99942943
       22909.040      0.99941147
       22909.080      0.99939216
       22909.120      0.99936750
       22909.160      0.99932946
       22909.200      0.99926472
       22909.240      0.99915171
       22909.280      0.99895441
       22909.320      0.99861284
       22909.360      0.99803515
       22909.400      0.99710275
       22909.440      0.99569818
       22909.480      0.99375570
       22909.520      0.99132849
       22909.560      0.98864723
       22909.600      0.98611732
       22909.640      0.98423032
       22909.680      0.98341073
       22909.720      0.98385034
       22909.760      0.98541065
       22909.800      0.98770629
       22909.840      0.99027810
       22909.880      0.99273473
       22909.920      0.99480586
       22909.960      0.99635272
       22910.000      0.99737937
       22910.040      0.99799314
       22910.080      0.99832579
       22910.120      0.99848779
       22910.160      0.99855436
       22910.200      0.99856889
       22910.240      0.99855366
       22910.280      0.99851974
       22910.320      0.99847279
       22910.360      0.99841603
       22910.400      0.99835159
       22910.440      0.99828107
       22910.480      0.99820569
       22910.520      0.99812623
       22910.560      0.99804323
       22910.600      0.99795696
       22910.640      0.99786757
       22910.680      0.99777496
       22910.720      0.99767871
       22910.760      0.99757788
       22910.800      0.99747112
       22910.840      0.99735677
       22910.880      0.99723306
       22910.920      0.99709815
       22910.960      0.99695017
       22911.000      0.99678724
       22911.040      0.99660754
       22911.080      0.99640935
       22911.120      0.99619119
       22911.160      0.99595215
       22911.200      0.99569233
       22911.240      0.99541362
       22911.280      0.99512013
       22911.320      0.99481763
       22911.360      0.99451282
       22911.400      0.99421285
       22911.440      0.99392512
       22911.480      0.99365707
       22911.520      0.99341618
       22911.560      0.99320978
       22911.600      0.99304493
       22911.640      0.99292804
       22911.680      0.99286419
       22911.720      0.99285597
       22911.760      0.99290212
       22911.800      0.99299753
       22911.840      0.99313462
       22911.880      0.99330449
       22911.920      0.99349774
       22911.960      0.99370484
       22912.000      0.99391667
       22912.040      0.99412498
       22912.080      0.99432325
       22912.120      0.99450736
       22912.160      0.99467520
       22912.200      0.99482587
       22912.240      0.99495906
       22912.280      0.99507477
       22912.320      0.99517314
       22912.360      0.99525436
       22912.400      0.99531866
       22912.440      0.99536625
       22912.480      0.99539738
       22912.520      0.99541227
       22912.560      0.99541120
       22912.600      0.99539448
       22912.640      0.99536251
       22912.680      0.99531591
       22912.720      0.99525575
       22912.760      0.99518389
       22912.800      0.99510348
       22912.840      0.99501899
       22912.880      0.99493571
       22912.920      0.99485932
       22912.960      0.99479568
       22913.000      0.99475048
       22913.040      0.99472904
       22913.080      0.99473573
       22913.120      0.99477331
       22913.160      0.99484218
       22913.200      0.99494077
       22913.240      0.99506632
       22913.280      0.99521547
       22913.320      0.99538455
       22913.360      0.99556975
       22913.400      0.99576723
       22913.440      0.99597313
       22913.480      0.99618360
       22913.520      0.99639480
       22913.560      0.99660298
       22913.600      0.99680457
       22913.640      0.99699633
       22913.680      0.99717569
       22913.720      0.99734114
       22913.760      0.99749232
       22913.800      0.99762958
       22913.840      0.99775371
       22913.880      0.99786568
       22913.920      0.99796656
       22913.960      0.99805745
       22914.000      0.99813949
       22914.040      0.99821378
       22914.080      0.99828145
       22914.120      0.99834362
       22914.160      0.99840135
       22914.200      0.99845566
       22914.240      0.99850745
       22914.280      0.99855740
       22914.320      0.99860590
       22914.360      0.99865314
       22914.400      0.99869917
       22914.440      0.99874399
       22914.480      0.99878754
       22914.520      0.99882979
       22914.560      0.99887067
       22914.600      0.99891013
       22914.640      0.99894811
       22914.680      0.99898454
       22914.720      0.99901938
       22914.760      0.99905257
       22914.800      0.99908408
       22914.840      0.99911389
       22914.880      0.99914202
       22914.920      0.99916854
       22914.960      0.99919350
       22915.000      0.99921700
       22915.040      0.99923914
       22915.080      0.99925999
       22915.120      0.99927967
       22915.160      0.99929826
       22915.200      0.99931586
       22915.240      0.99933256
       22915.280      0.99934846
       22915.320      0.99936365
       22915.360      0.99937821
       22915.400      0.99939223
       22915.440      0.99940575
       22915.480      0.99941883
       22915.520      0.99943149
       22915.560      0.99944373
       22915.600      0.99945559
       22915.640      0.99946706
       22915.680      0.99947816
       22915.720      0.99948890
       22915.760      0.99949929
       22915.800      0.99950935
       22915.840      0.99951907
       22915.880      0.99952847
       22915.920      0.99953756
       22915.960      0.99954635
       22916.000      0.99955486
       22916.040      0.99956308
       22916.080      0.99957103
       22916.120      0.99957873
       22916.160      0.99958618
       22916.200      0.99959339
       22916.240      0.99960037
       22916.280      0.99960713
       22916.320      0.99961369
       22916.360      0.99962005
       22916.400      0.99962622
       22916.440      0.99963221
       22916.480      0.99963804
       22916.520      0.99964371
       22916.560      0.99964922
       22916.600      0.99965460
       22916.640      0.99965983
       22916.680      0.99966493
       22916.720      0.99966989
       22916.760      0.99967473
       22916.800      0.99967944
       22916.840      0.99968402
       22916.880      0.99968848
       22916.920      0.99969282
       22916.960      0.99969704
       22917.000      0.99970114
       22917.040      0.99970513
       22917.080      0.99970901
       22917.120      0.99971277
       22917.160      0.99971643
       22917.200      0.99971999
       22917.240      0.99972344
       22917.280      0.99972679
       22917.320      0.99973005
       22917.360      0.99973320
       22917.400      0.99973627
       22917.440      0.99973924
       22917.480      0.99974213
       22917.520      0.99974492
       22917.560      0.99974764
       22917.600      0.99975027
       22917.640      0.99975282
       22917.680      0.99975529
       22917.720      0.99975768
       22917.760      0.99976001
       22917.800      0.99976226
       22917.840      0.99976444
       22917.880      0.99976655
       22917.920      0.99976860
       22917.960      0.99977059
       22918.000      0.99977251
       22918.040      0.99977437
       22918.080      0.99977617
       22918.120      0.99977792
       22918.160      0.99977961
       22918.200      0.99978125
       22918.240      0.99978284
       22918.280      0.99978438
       22918.320      0.99978587
       22918.360      0.99978732
       22918.400      0.99978873
       22918.440      0.99979009
       22918.480      0.99979141
       22918.520      0.99979270
       22918.560      0.99979395
       22918.600      0.99979516
       22918.640      0.99979635
       22918.680      0.99979750
       22918.720      0.99979863
       22918.760      0.99979973
       22918.800      0.99980080
       22918.840      0.99980185
       22918.880      0.99980288
       22918.920      0.99980388
       22918.960      0.99980486
       22919.000      0.99980582
       22919.040      0.99980676
       22919.080      0.99980767
       22919.120      0.99980855
       22919.160      0.99980940
       22919.200      0.99981022
       22919.240      0.99981101
       22919.280      0.99981178
       22919.320      0.99981250
       22919.360      0.99981320
       22919.400      0.99981386
       22919.440      0.99981448
       22919.480      0.99981506
       22919.520      0.99981561
       22919.560      0.99981611
       22919.600      0.99981658
       22919.640      0.99981700
       22919.680      0.99981738
       22919.720      0.99981771
       22919.760      0.99981800
       22919.800      0.99981824
       22919.840      0.99981843
       22919.880      0.99981857
       22919.920      0.99981866
       22919.960      0.99981871
       22920.000      0.99981870
       22920.040      0.99981866
       22920.080      0.99981859
       22920.120      0.99981850
       22920.160      0.99981841
       22920.200      0.99981834
       22920.240      0.99981831
       22920.280      0.99981833
       22920.320      0.99981843
       22920.360      0.99981862
       22920.400      0.99981892
       22920.440      0.99981935
       22920.480      0.99981992
       22920.520      0.99982066
       22920.560      0.99982156
       22920.600      0.99982262
       22920.640      0.99982381
       22920.680      0.99982509
       22920.720      0.99982640
       22920.760      0.99982767
       22920.800      0.99982884
       22920.840      0.99982983
       22920.880      0.99983059
       22920.920      0.99983103
       22920.960      0.99983108
       22921.000      0.99983068
       22921.040      0.99982977
       22921.080      0.99982830
       22921.120      0.99982625
       22921.160      0.99982365
       22921.200      0.99982062
       22921.240      0.99981741
       22921.280      0.99981434
       22921.320      0.99981176
       22921.360      0.99981000
       22921.400      0.99980930
       22921.440      0.99980970
       22921.480      0.99981091
       22921.520      0.99981216
       22921.560      0.99981233
       22921.600      0.99981015
       22921.640      0.99980440
       22921.680      0.99979423
       22921.720      0.99977938
       22921.760      0.99976042
       22921.800      0.99973804
       22921.840      0.99970987
       22921.880      0.99966431
       22921.920      0.99957242
       22921.960      0.99938432
       22922.000      0.99903750
       22922.040      0.99847056
       22922.080      0.99763878
       22922.120      0.99653136
       22922.160      0.99519397
       22922.200      0.99376163
       22922.240      0.99247448
       22922.280      0.99161986
       22922.320      0.99142571
       22922.360      0.99195055
       22922.400      0.99304903
       22922.440      0.99445860
       22922.480      0.99590456
       22922.520      0.99716880
       22922.560      0.99813468
       22922.600      0.99879669
       22922.640      0.99921464
       22922.680      0.99946237
       22922.720      0.99960279
       22922.760      0.99968118
       22922.800      0.99972523
       22922.840      0.99975030
       22922.880      0.99976483
       22922.920      0.99977361
       22922.960      0.99977940
       22923.000      0.99978364
       22923.040      0.99978708
       22923.080      0.99979006
       22923.120      0.99979276
       22923.160      0.99979527
       22923.200      0.99979762
       22923.240      0.99979984
       22923.280      0.99980190
       22923.320      0.99980381
       22923.360      0.99980554
       22923.400      0.99980708
       22923.440      0.99980842
       22923.480      0.99980954
       22923.520      0.99981043
       22923.560      0.99981111
       22923.600      0.99981158
       22923.640      0.99981185
       22923.680      0.99981195
       22923.720      0.99981191
       22923.760      0.99981175
       22923.800      0.99981150
       22923.840      0.99981119
       22923.880      0.99981085
       22923.920      0.99981048
       22923.960      0.99981012
       22924.000      0.99980977
       22924.040      0.99980943
       22924.080      0.99980910
       22924.120      0.99980878
       22924.160      0.99980846
