 #      wave           flux
       22900.000      0.99996214
       22900.040      0.99996418
       22900.080      0.99996501
       22900.120      0.99996517
       22900.160      0.99996500
       22900.200      0.99996468
       22900.240      0.99996429
       22900.280      0.99996387
       22900.320      0.99996344
       22900.360      0.99996301
       22900.400      0.99996257
       22900.440      0.99996211
       22900.480      0.99996164
       22900.520      0.99996115
       22900.560      0.99996061
       22900.600      0.99996000
       22900.640      0.99995931
       22900.680      0.99995850
       22900.720      0.99995755
       22900.760      0.99995643
       22900.800      0.99995512
       22900.840      0.99995359
       22900.880      0.99995183
       22900.920      0.99994983
       22900.960      0.99994759
       22901.000      0.99994517
       22901.040      0.99994264
       22901.080      0.99994008
       22901.120      0.99993754
       22901.160      0.99993500
       22901.200      0.99993223
       22901.240      0.99992860
       22901.280      0.99992283
       22901.320      0.99991243
       22901.360      0.99989213
       22901.400      0.99985009
       22901.440      0.99975976
       22901.480      0.99956426
       22901.520      0.99915177
       22901.560      0.99832501
       22901.600      0.99677739
       22901.640      0.99410222
       22901.680      0.98988422
       22901.720      0.98392494
       22901.760      0.97653750
       22901.800      0.96863522
       22901.840      0.96161674
       22901.880      0.95702677
       22901.920      0.95602208
       22901.960      0.95888438
       22902.000      0.96488627
       22902.040      0.97260047
       22902.080      0.98043997
       22902.120      0.98718250
       22902.160      0.99224747
       22902.200      0.99564252
       22902.240      0.99771066
       22902.280      0.99886911
       22902.320      0.99945658
       22902.360      0.99971600
       22902.400      0.99981338
       22902.440      0.99984839
       22902.480      0.99986663
       22902.520      0.99988139
       22902.560      0.99989227
       22902.600      0.99989670
       22902.640      0.99989392
       22902.680      0.99988125
       22902.720      0.99984622
       22902.760      0.99975636
       22902.800      0.99955300
       22902.840      0.99915134
       22902.880      0.99843755
       22902.920      0.99726821
       22902.960      0.99550692
       22903.000      0.99310725
       22903.040      0.99020321
       22903.080      0.98716356
       22903.120      0.98454906
       22903.160      0.98295573
       22903.200      0.98278813
       22903.240      0.98407938
       22903.280      0.98647624
       22903.320      0.98941433
       22903.360      0.99234275
       22903.400      0.99487877
       22903.440      0.99683706
       22903.480      0.99819088
       22903.520      0.99902492
       22903.560      0.99948149
       22903.600      0.99970701
       22903.640      0.99981411
       22903.680      0.99986819
       22903.720      0.99989914
       22903.760      0.99991795
       22903.800      0.99992831
       22903.840      0.99993204
       22903.880      0.99993086
       22903.920      0.99992664
       22903.960      0.99992123
       22904.000      0.99991616
       22904.040      0.99991237
       22904.080      0.99991010
       22904.120      0.99990913
       22904.160      0.99990895
       22904.200      0.99990898
       22904.240      0.99990871
       22904.280      0.99990781
       22904.320      0.99990626
       22904.360      0.99990436
       22904.400      0.99990253
       22904.440      0.99990126
       22904.480      0.99990094
       22904.520      0.99990173
       22904.560      0.99990329
       22904.600      0.99990468
       22904.640      0.99990451
       22904.680      0.99990114
       22904.720      0.99989284
       22904.760      0.99987753
       22904.800      0.99985173
       22904.840      0.99980737
       22904.880      0.99972362
       22904.920      0.99955036
       22904.960      0.99918339
       22905.000      0.99844591
       22905.040      0.99710471
       22905.080      0.99490797
       22905.120      0.99165794
       22905.160      0.98736763
       22905.200      0.98242550
       22905.240      0.97763032
       22905.280      0.97400914
       22905.320      0.97246145
       22905.360      0.97339905
       22905.400      0.97657062
       22905.440      0.98116869
       22905.480      0.98616073
       22905.520      0.99066456
       22905.560      0.99418546
       22905.600      0.99663022
       22905.640      0.99816254
       22905.680      0.99902831
       22905.720      0.99946641
       22905.760      0.99967014
       22905.800      0.99976438
       22905.840      0.99981234
       22905.880      0.99984020
       22905.920      0.99985713
       22905.960      0.99986638
       22906.000      0.99986970
       22906.040      0.99986868
       22906.080      0.99986498
       22906.120      0.99986025
       22906.160      0.99985585
       22906.200      0.99985262
       22906.240      0.99985081
       22906.280      0.99985027
       22906.320      0.99985065
       22906.360      0.99985152
       22906.400      0.99985247
       22906.440      0.99985314
       22906.480      0.99985332
       22906.520      0.99985292
       22906.560      0.99985193
       22906.600      0.99985041
       22906.640      0.99984841
       22906.680      0.99984600
       22906.720      0.99984325
       22906.760      0.99984025
       22906.800      0.99983707
       22906.840      0.99983379
       22906.880      0.99983047
       22906.920      0.99982718
       22906.960      0.99982399
       22907.000      0.99982092
       22907.040      0.99981798
       22907.080      0.99981517
       22907.120      0.99981245
       22907.160      0.99980980
       22907.200      0.99980719
       22907.240      0.99980458
       22907.280      0.99980195
       22907.320      0.99979925
       22907.360      0.99979646
       22907.400      0.99979353
       22907.440      0.99979045
       22907.480      0.99978718
       22907.520      0.99978371
       22907.560      0.99978003
       22907.600      0.99977614
       22907.640      0.99977206
       22907.680      0.99976781
       22907.720      0.99976341
       22907.760      0.99975888
       22907.800      0.99975425
       22907.840      0.99974954
       22907.880      0.99974477
       22907.920      0.99973997
       22907.960      0.99973516
       22908.000      0.99973035
       22908.040      0.99972555
       22908.080      0.99972075
       22908.120      0.99971593
       22908.160      0.99971103
       22908.200      0.99970600
       22908.240      0.99970078
       22908.280      0.99969528
       22908.320      0.99968945
       22908.360      0.99968322
       22908.400      0.99967650
       22908.440      0.99966925
       22908.480      0.99966138
       22908.520      0.99965287
       22908.560      0.99964369
       22908.600      0.99963391
       22908.640      0.99962368
       22908.680      0.99961327
       22908.720      0.99960304
       22908.760      0.99959338
       22908.800      0.99958461
       22908.840      0.99957689
       22908.880      0.99957005
       22908.920      0.99956343
       22908.960      0.99955583
       22909.000      0.99954570
       22909.040      0.99953140
       22909.080      0.99951142
       22909.120      0.99948447
       22909.160      0.99944875
       22909.200      0.99939911
       22909.240      0.99931990
       22909.280      0.99917209
       22909.320      0.99887733
       22909.360      0.99831202
       22909.400      0.99732675
       22909.440      0.99578379
       22909.480      0.99360913
       22909.520      0.99085231
       22909.560      0.98774977
       22909.600      0.98475625
       22909.640      0.98247431
       22909.680      0.98146057
       22909.720      0.98198635
       22909.760      0.98388450
       22909.800      0.98665287
       22909.840      0.98969837
       22909.880      0.99253875
       22909.920      0.99486733
       22909.960      0.99654833
       22910.000      0.99761547
       22910.040      0.99821614
       22910.080      0.99851435
       22910.120      0.99863888
       22910.160      0.99867161
       22910.200      0.99865665
       22910.240      0.99861496
       22910.280      0.99855588
       22910.320      0.99848374
       22910.360      0.99840080
       22910.400      0.99830840
       22910.440      0.99820729
       22910.480      0.99809743
       22910.520      0.99797790
       22910.560      0.99784706
       22910.600      0.99770285
       22910.640      0.99754285
       22910.680      0.99736436
       22910.720      0.99716424
       22910.760      0.99693865
       22910.800      0.99668289
       22910.840      0.99639117
       22910.880      0.99605617
       22910.920      0.99566870
       22910.960      0.99521714
       22911.000      0.99468629
       22911.040      0.99405613
       22911.080      0.99330007
       22911.120      0.99238201
       22911.160      0.99125378
       22911.200      0.98985396
       22911.240      0.98810527
       22911.280      0.98591278
       22911.320      0.98316867
       22911.360      0.97976636
       22911.400      0.97562761
       22911.440      0.97074284
       22911.480      0.96521970
       22911.520      0.95932537
       22911.560      0.95349810
       22911.600      0.94831371
       22911.640      0.94438829
       22911.680      0.94224508
       22911.720      0.94218386
       22911.760      0.94420101
       22911.800      0.94798979
       22911.840      0.95302145
       22911.880      0.95867527
       22911.920      0.96437255
       22911.960      0.96966887
       22912.000      0.97429167
       22912.040      0.97812422
       22912.080      0.98116355
       22912.120      0.98346615
       22912.160      0.98510464
       22912.200      0.98613983
       22912.240      0.98660159
       22912.280      0.98648308
       22912.320      0.98574749
       22912.360      0.98434193
       22912.400      0.98222234
       22912.440      0.97938345
       22912.480      0.97588259
       22912.520      0.97185073
       22912.560      0.96748193
       22912.600      0.96300712
       22912.640      0.95865758
       22912.680      0.95462960
       22912.720      0.95106157
       22912.760      0.94802544
       22912.800      0.94553605
       22912.840      0.94357455
       22912.880      0.94211981
       22912.920      0.94119076
       22912.960      0.94087641
       22913.000      0.94133095
       22913.040      0.94273595
       22913.080      0.94522961
       22913.120      0.94882891
       22913.160      0.95338227
       22913.200      0.95859180
       22913.240      0.96407645
       22913.280      0.96945250
       22913.320      0.97440805
       22913.360      0.97875159
       22913.400      0.98241156
       22913.440      0.98540694
       22913.480      0.98781189
       22913.520      0.98972319
       22913.560      0.99123814
       22913.600      0.99244388
       22913.640      0.99341199
       22913.680      0.99419761
       22913.720      0.99484264
       22913.760      0.99537859
       22913.800      0.99582930
       22913.840      0.99621299
       22913.880      0.99654351
       22913.920      0.99683114
       22913.960      0.99708313
       22914.000      0.99730460
       22914.040      0.99749944
       22914.080      0.99767092
       22914.120      0.99782206
       22914.160      0.99795571
       22914.200      0.99807463
       22914.240      0.99818141
       22914.280      0.99827838
       22914.320      0.99836739
       22914.360      0.99844970
       22914.400      0.99852611
       22914.440      0.99859716
       22914.480      0.99866325
       22914.520      0.99872471
       22914.560      0.99878186
       22914.600      0.99883499
       22914.640      0.99888438
       22914.680      0.99893034
       22914.720      0.99897311
       22914.760      0.99901295
       22914.800      0.99905009
       22914.840      0.99908477
       22914.880      0.99911721
       22914.920      0.99914764
       22914.960      0.99917627
       22915.000      0.99920330
       22915.040      0.99922894
       22915.080      0.99925333
       22915.120      0.99927657
       22915.160      0.99929869
       22915.200      0.99931965
       22915.240      0.99933941
       22915.280      0.99935790
       22915.320      0.99937506
       22915.360      0.99939083
       22915.400      0.99940518
       22915.440      0.99941817
       22915.480      0.99942998
       22915.520      0.99944098
       22915.560      0.99945171
       22915.600      0.99946264
       22915.640      0.99947384
       22915.680      0.99948434
       22915.720      0.99949111
       22915.760      0.99948777
       22915.800      0.99946251
       22915.840      0.99939349
       22915.880      0.99924018
       22915.920      0.99893056
       22915.960      0.99835081
       22916.000      0.99735165
       22916.040      0.99578559
       22916.080      0.99358055
       22916.120      0.99083855
       22916.160      0.98790082
       22916.200      0.98530495
       22916.240      0.98361062
       22916.280      0.98315118
       22916.320      0.98384208
       22916.360      0.98518354
       22916.400      0.98647893
       22916.440      0.98710573
       22916.480      0.98679254
       22916.520      0.98577604
       22916.560      0.98464713
       22916.600      0.98407827
       22916.640      0.98456023
       22916.680      0.98618896
       22916.720      0.98865666
       22916.760      0.99143982
       22916.800      0.99403449
       22916.840      0.99612164
       22916.880      0.99760745
       22916.920      0.99856183
       22916.960      0.99912445
       22917.000      0.99943092
       22917.040      0.99958210
       22917.080      0.99964746
       22917.120      0.99967274
       22917.160      0.99968403
       22917.200      0.99969270
       22917.240      0.99970174
       22917.280      0.99971068
       22917.320      0.99971830
       22917.360      0.99972394
       22917.400      0.99972749
       22917.440      0.99972921
       22917.480      0.99972958
       22917.520      0.99972912
       22917.560      0.99972835
       22917.600      0.99972767
       22917.640      0.99972730
       22917.680      0.99972731
       22917.720      0.99972761
       22917.760      0.99972805
       22917.800      0.99972845
       22917.840      0.99972864
       22917.880      0.99972843
       22917.920      0.99972770
       22917.960      0.99972638
       22918.000      0.99972444
       22918.040      0.99972191
       22918.080      0.99971882
       22918.120      0.99971522
       22918.160      0.99971116
       22918.200      0.99970662
       22918.240      0.99970149
       22918.280      0.99969557
       22918.320      0.99968848
       22918.360      0.99967976
       22918.400      0.99966889
       22918.440      0.99965532
       22918.480      0.99963848
       22918.520      0.99961776
       22918.560      0.99959252
       22918.600      0.99956188
       22918.640      0.99952443
       22918.680      0.99947758
       22918.720      0.99941631
       22918.760      0.99933129
       22918.800      0.99920696
       22918.840      0.99901992
       22918.880      0.99873585
       22918.920      0.99830517
       22918.960      0.99766503
       22919.000      0.99675538
       22919.040      0.99554781
       22919.080      0.99408436
       22919.120      0.99249538
       22919.160      0.99096787
       22919.200      0.98968942
       22919.240      0.98877975
       22919.280      0.98825768
       22919.320      0.98808712
       22919.360      0.98824352
       22919.400      0.98874899
       22919.440      0.98964062
       22919.480      0.99090380
       22919.520      0.99242215
       22919.560      0.99400951
       22919.600      0.99548193
       22919.640      0.99670835
       22919.680      0.99763588
       22919.720      0.99828835
       22919.760      0.99872811
       22919.800      0.99901899
       22919.840      0.99921189
       22919.880      0.99934217
       22919.920      0.99943228
       22919.960      0.99949644
       22920.000      0.99954397
       22920.040      0.99958070
       22920.080      0.99960978
       22920.120      0.99963273
       22920.160      0.99965042
       22920.200      0.99966388
       22920.240      0.99967465
       22920.280      0.99968454
       22920.320      0.99969434
       22920.360      0.99970171
       22920.400      0.99969762
       22920.440      0.99966173
       22920.480      0.99955708
       22920.520      0.99932009
       22920.560      0.99884161
       22920.600      0.99794268
       22920.640      0.99637407
       22920.680      0.99387272
       22920.720      0.99027990
       22920.760      0.98570955
       22920.800      0.98068426
       22920.840      0.97610815
       22920.880      0.97301636
       22920.920      0.97219835
       22920.960      0.97387490
       22921.000      0.97760218
       22921.040      0.98245864
       22921.080      0.98741454
       22921.120      0.99168480
       22921.160      0.99489630
       22921.200      0.99705082
       22921.240      0.99836232
       22921.280      0.99909941
       22921.320      0.99948514
       22921.360      0.99966900
       22921.400      0.99974452
       22921.440      0.99976929
       22921.480      0.99977591
       22921.520      0.99977852
       22921.560      0.99978034
       22921.600      0.99978022
       22921.640      0.99977707
       22921.680      0.99977229
       22921.720      0.99976836
       22921.760      0.99976422
       22921.800      0.99974770
       22921.840      0.99968492
       22921.880      0.99950972
       22921.920      0.99911192
       22921.960      0.99831433
       22922.000      0.99683921
       22922.040      0.99430479
       22922.080      0.99032235
       22922.120      0.98469308
       22922.160      0.97766528
       22922.200      0.97010520
       22922.240      0.96339847
       22922.280      0.95904887
       22922.320      0.95813809
       22922.360      0.96089708
       22922.400      0.96659439
       22922.440      0.97386425
       22922.480      0.98124229
       22922.520      0.98762671
       22922.560      0.99246403
       22922.600      0.99570916
       22922.640      0.99766472
       22922.680      0.99874867
       22922.720      0.99930896
       22922.760      0.99958094
       22922.800      0.99970698
       22922.840      0.99976451
       22922.880      0.99979152
       22922.920      0.99980513
       22922.960      0.99981265
       22923.000      0.99981716
       22923.040      0.99982010
       22923.080      0.99982224
       22923.120      0.99982403
       22923.160      0.99982574
       22923.200      0.99982746
       22923.240      0.99982920
       22923.280      0.99983094
       22923.320      0.99983261
       22923.360      0.99983417
       22923.400      0.99983558
       22923.440      0.99983682
       22923.480      0.99983789
       22923.520      0.99983880
       22923.560      0.99983956
       22923.600      0.99984019
       22923.640      0.99984069
       22923.680      0.99984110
       22923.720      0.99984142
       22923.760      0.99984166
       22923.800      0.99984185
       22923.840      0.99984200
       22923.880      0.99984211
       22923.920      0.99984221
       22923.960      0.99984228
       22924.000      0.99984234
       22924.040      0.99984238
       22924.080      0.99984240
       22924.120      0.99984240
       22924.160      0.99984238
