 #      wave           flux
       22900.000      0.99991468
       22900.040      0.99991651
       22900.080      0.99991706
       22900.120      0.99991691
       22900.160      0.99991640
       22900.200      0.99991573
       22900.240      0.99991500
       22900.280      0.99991424
       22900.320      0.99991347
       22900.360      0.99991270
       22900.400      0.99991192
       22900.440      0.99991115
       22900.480      0.99991037
       22900.520      0.99990959
       22900.560      0.99990881
       22900.600      0.99990803
       22900.640      0.99990724
       22900.680      0.99990645
       22900.720      0.99990566
       22900.760      0.99990487
       22900.800      0.99990408
       22900.840      0.99990328
       22900.880      0.99990248
       22900.920      0.99990167
       22900.960      0.99990086
       22901.000      0.99990005
       22901.040      0.99989924
       22901.080      0.99989842
       22901.120      0.99989760
       22901.160      0.99989677
       22901.200      0.99989594
       22901.240      0.99989511
       22901.280      0.99989427
       22901.320      0.99989342
       22901.360      0.99989258
       22901.400      0.99989172
       22901.440      0.99989086
       22901.480      0.99989000
       22901.520      0.99988913
       22901.560      0.99988826
       22901.600      0.99988738
       22901.640      0.99988649
       22901.680      0.99988560
       22901.720      0.99988470
       22901.760      0.99988380
       22901.800      0.99988289
       22901.840      0.99988197
       22901.880      0.99988105
       22901.920      0.99988012
       22901.960      0.99987918
       22902.000      0.99987824
       22902.040      0.99987729
       22902.080      0.99987633
       22902.120      0.99987537
       22902.160      0.99987439
       22902.200      0.99987341
       22902.240      0.99987242
       22902.280      0.99987143
       22902.320      0.99987042
       22902.360      0.99986941
       22902.400      0.99986839
       22902.440      0.99986736
       22902.480      0.99986632
       22902.520      0.99986527
       22902.560      0.99986421
       22902.600      0.99986315
       22902.640      0.99986207
       22902.680      0.99986099
       22902.720      0.99985989
       22902.760      0.99985879
       22902.800      0.99985767
       22902.840      0.99985655
       22902.880      0.99985542
       22902.920      0.99985427
       22902.960      0.99985312
       22903.000      0.99985195
       22903.040      0.99985077
       22903.080      0.99984958
       22903.120      0.99984837
       22903.160      0.99984715
       22903.200      0.99984592
       22903.240      0.99984467
       22903.280      0.99984341
       22903.320      0.99984213
       22903.360      0.99984083
       22903.400      0.99983951
       22903.440      0.99983817
       22903.480      0.99983682
       22903.520      0.99983544
       22903.560      0.99983404
       22903.600      0.99983262
       22903.640      0.99983118
       22903.680      0.99982972
       22903.720      0.99982823
       22903.760      0.99982672
       22903.800      0.99982518
       22903.840      0.99982361
       22903.880      0.99982202
       22903.920      0.99982040
       22903.960      0.99981875
       22904.000      0.99981708
       22904.040      0.99981537
       22904.080      0.99981364
       22904.120      0.99981187
       22904.160      0.99981007
       22904.200      0.99980824
       22904.240      0.99980637
       22904.280      0.99980447
       22904.320      0.99980254
       22904.360      0.99980057
       22904.400      0.99979857
       22904.440      0.99979652
       22904.480      0.99979445
       22904.520      0.99979233
       22904.560      0.99979017
       22904.600      0.99978798
       22904.640      0.99978574
       22904.680      0.99978346
       22904.720      0.99978114
       22904.760      0.99977878
       22904.800      0.99977638
       22904.840      0.99977393
       22904.880      0.99977144
       22904.920      0.99976890
       22904.960      0.99976631
       22905.000      0.99976368
       22905.040      0.99976100
       22905.080      0.99975827
       22905.120      0.99975550
       22905.160      0.99975267
       22905.200      0.99974980
       22905.240      0.99974687
       22905.280      0.99974389
       22905.320      0.99974086
       22905.360      0.99973778
       22905.400      0.99973464
       22905.440      0.99973144
       22905.480      0.99972820
       22905.520      0.99972489
       22905.560      0.99972153
       22905.600      0.99971811
       22905.640      0.99971463
       22905.680      0.99971110
       22905.720      0.99970750
       22905.760      0.99970385
       22905.800      0.99970013
       22905.840      0.99969635
       22905.880      0.99969251
       22905.920      0.99968860
       22905.960      0.99968463
       22906.000      0.99968058
       22906.040      0.99967647
       22906.080      0.99967228
       22906.120      0.99966802
       22906.160      0.99966368
       22906.200      0.99965927
       22906.240      0.99965477
       22906.280      0.99965019
       22906.320      0.99964552
       22906.360      0.99964076
       22906.400      0.99963592
       22906.440      0.99963098
       22906.480      0.99962595
       22906.520      0.99962082
       22906.560      0.99961559
       22906.600      0.99961026
       22906.640      0.99960483
       22906.680      0.99959930
       22906.720      0.99959366
       22906.760      0.99958791
       22906.800      0.99958205
       22906.840      0.99957607
       22906.880      0.99956998
       22906.920      0.99956377
       22906.960      0.99955744
       22907.000      0.99955099
       22907.040      0.99954442
       22907.080      0.99953772
       22907.120      0.99953089
       22907.160      0.99952393
       22907.200      0.99951684
       22907.240      0.99950961
       22907.280      0.99950224
       22907.320      0.99949473
       22907.360      0.99948706
       22907.400      0.99947924
       22907.440      0.99947123
       22907.480      0.99946303
       22907.520      0.99945463
       22907.560      0.99944600
       22907.600      0.99943713
       22907.640      0.99942801
       22907.680      0.99941862
       22907.720      0.99940894
       22907.760      0.99939896
       22907.800      0.99938867
       22907.840      0.99937804
       22907.880      0.99936706
       22907.920      0.99935572
       22907.960      0.99934399
       22908.000      0.99933187
       22908.040      0.99931934
       22908.080      0.99930638
       22908.120      0.99929297
       22908.160      0.99927911
       22908.200      0.99926477
       22908.240      0.99924994
       22908.280      0.99923460
       22908.320      0.99921874
       22908.360      0.99920234
       22908.400      0.99918538
       22908.440      0.99916786
       22908.480      0.99914975
       22908.520      0.99913103
       22908.560      0.99911170
       22908.600      0.99909174
       22908.640      0.99907112
       22908.680      0.99904984
       22908.720      0.99902787
       22908.760      0.99900520
       22908.800      0.99898179
       22908.840      0.99895761
       22908.880      0.99893262
       22908.920      0.99890676
       22908.960      0.99887999
       22909.000      0.99885226
       22909.040      0.99882351
       22909.080      0.99879368
       22909.120      0.99876273
       22909.160      0.99873060
       22909.200      0.99869723
       22909.240      0.99866258
       22909.280      0.99862659
       22909.320      0.99858921
       22909.360      0.99855038
       22909.400      0.99851004
       22909.440      0.99846813
       22909.480      0.99842456
       22909.520      0.99837922
       22909.560      0.99833197
       22909.600      0.99828258
       22909.640      0.99823083
       22909.680      0.99817644
       22909.720      0.99811915
       22909.760      0.99805869
       22909.800      0.99799478
       22909.840      0.99792715
       22909.880      0.99785551
       22909.920      0.99777960
       22909.960      0.99769913
       22910.000      0.99761382
       22910.040      0.99752341
       22910.080      0.99742761
       22910.120      0.99732612
       22910.160      0.99721866
       22910.200      0.99710487
       22910.240      0.99698437
       22910.280      0.99685663
       22910.320      0.99672100
       22910.360      0.99657671
       22910.400      0.99642294
       22910.440      0.99625882
       22910.480      0.99608345
       22910.520      0.99589588
       22910.560      0.99569504
       22910.600      0.99547965
       22910.640      0.99524808
       22910.680      0.99499820
       22910.720      0.99472750
       22910.760      0.99443321
       22910.800      0.99411246
       22910.840      0.99376228
       22910.880      0.99337962
       22910.920      0.99296127
       22910.960      0.99250376
       22911.000      0.99200307
       22911.040      0.99145433
       22911.080      0.99085176
       22911.120      0.99018866
       22911.160      0.98945706
       22911.200      0.98864700
       22911.240      0.98774659
       22911.280      0.98674311
       22911.320      0.98562505
       22911.360      0.98438625
       22911.400      0.98303080
       22911.440      0.98157486
       22911.480      0.98004771
       22911.520      0.97849672
       22911.560      0.97699662
       22911.600      0.97565261
       22911.640      0.97458396
       22911.680      0.97389930
       22911.720      0.97366693
       22911.760      0.97388492
       22911.800      0.97447985
       22911.840      0.97533501
       22911.880      0.97632281
       22911.920      0.97732651
       22911.960      0.97825132
       22912.000      0.97902857
       22912.040      0.97961299
       22912.080      0.97997497
       22912.120      0.98009096
       22912.160      0.97993711
       22912.200      0.97948407
       22912.240      0.97869269
       22912.280      0.97752165
       22912.320      0.97594440
       22912.360      0.97395457
       22912.400      0.97156391
       22912.440      0.96880288
       22912.480      0.96572379
       22912.520      0.96240504
       22912.560      0.95895649
       22912.600      0.95552151
       22912.640      0.95226558
       22912.680      0.94935958
       22912.720      0.94696436
       22912.760      0.94521726
       22912.800      0.94421792
       22912.840      0.94401009
       22912.880      0.94457615
       22912.920      0.94586179
       22912.960      0.94779110
       22913.000      0.95027370
       22913.040      0.95320919
       22913.080      0.95648640
       22913.120      0.95998193
       22913.160      0.96356168
       22913.200      0.96709232
       22913.240      0.97045764
       22913.280      0.97356967
       22913.320      0.97637451
       22913.360      0.97885473
       22913.400      0.98102033
       22913.440      0.98289820
       22913.480      0.98452353
       22913.520      0.98593220
       22913.560      0.98715718
       22913.600      0.98822743
       22913.640      0.98916741
       22913.680      0.98999735
       22913.720      0.99073388
       22913.760      0.99139065
       22913.800      0.99197906
       22913.840      0.99250880
       22913.880      0.99298801
       22913.920      0.99342317
       22913.960      0.99381921
       22914.000      0.99418004
       22914.040      0.99450901
       22914.080      0.99480921
       22914.120      0.99508356
       22914.160      0.99533494
       22914.200      0.99556609
       22914.240      0.99577957
       22914.280      0.99597765
       22914.320      0.99616210
       22914.360      0.99633427
       22914.400      0.99649518
       22914.440      0.99664572
       22914.480      0.99678671
       22914.520      0.99691891
       22914.560      0.99704307
       22914.600      0.99715990
       22914.640      0.99727008
       22914.680      0.99737415
       22914.720      0.99747258
       22914.760      0.99756570
       22914.800      0.99765379
       22914.840      0.99773709
       22914.880      0.99781583
       22914.920      0.99789024
       22914.960      0.99796053
       22915.000      0.99802692
       22915.040      0.99808964
       22915.080      0.99814889
       22915.120      0.99820490
       22915.160      0.99825788
       22915.200      0.99830807
       22915.240      0.99835566
       22915.280      0.99840088
       22915.320      0.99844395
       22915.360      0.99848507
       22915.400      0.99852443
       22915.440      0.99856221
       22915.480      0.99859855
       22915.520      0.99863354
       22915.560      0.99866723
       22915.600      0.99869970
       22915.640      0.99873098
       22915.680      0.99876110
       22915.720      0.99879012
       22915.760      0.99881807
       22915.800      0.99884499
       22915.840      0.99887091
       22915.880      0.99889588
       22915.920      0.99891994
       22915.960      0.99894312
       22916.000      0.99896547
       22916.040      0.99898701
       22916.080      0.99900780
       22916.120      0.99902787
       22916.160      0.99904725
       22916.200      0.99906597
       22916.240      0.99908408
       22916.280      0.99910159
       22916.320      0.99911852
       22916.360      0.99913488
       22916.400      0.99915069
       22916.440      0.99916596
       22916.480      0.99918071
       22916.520      0.99919495
       22916.560      0.99920869
       22916.600      0.99922194
       22916.640      0.99923472
       22916.680      0.99924703
       22916.720      0.99925890
       22916.760      0.99927033
       22916.800      0.99928133
       22916.840      0.99929193
       22916.880      0.99930212
       22916.920      0.99931193
       22916.960      0.99932136
       22917.000      0.99933043
       22917.040      0.99933912
       22917.080      0.99934746
       22917.120      0.99935543
       22917.160      0.99936303
       22917.200      0.99937026
       22917.240      0.99937711
       22917.280      0.99938359
       22917.320      0.99938967
       22917.360      0.99939537
       22917.400      0.99940067
       22917.440      0.99940558
       22917.480      0.99941008
       22917.520      0.99941418
       22917.560      0.99941786
       22917.600      0.99942113
       22917.640      0.99942397
       22917.680      0.99942639
       22917.720      0.99942837
       22917.760      0.99942990
       22917.800      0.99943095
       22917.840      0.99943147
       22917.880      0.99943144
       22917.920      0.99943078
       22917.960      0.99942943
       22918.000      0.99942734
       22918.040      0.99942444
       22918.080      0.99942065
       22918.120      0.99941587
       22918.160      0.99940998
       22918.200      0.99940278
       22918.240      0.99939401
       22918.280      0.99938337
       22918.320      0.99937051
       22918.360      0.99935507
       22918.400      0.99933668
       22918.440      0.99931493
       22918.480      0.99928933
       22918.520      0.99925923
       22918.560      0.99922369
       22918.600      0.99918134
       22918.640      0.99913029
       22918.680      0.99906817
       22918.720      0.99899215
       22918.760      0.99889856
       22918.800      0.99878245
       22918.840      0.99863720
       22918.880      0.99845399
       22918.920      0.99822065
       22918.960      0.99791960
       22919.000      0.99752694
       22919.040      0.99701584
       22919.080      0.99636467
       22919.120      0.99557007
       22919.160      0.99466697
       22919.200      0.99374336
       22919.240      0.99292783
       22919.280      0.99236218
       22919.320      0.99216485
       22919.360      0.99238198
       22919.400      0.99295725
       22919.440      0.99376518
       22919.480      0.99466685
       22919.520      0.99555116
       22919.560      0.99634434
       22919.600      0.99700747
       22919.640      0.99753464
       22919.680      0.99794303
       22919.720      0.99825853
       22919.760      0.99850470
       22919.800      0.99869909
       22919.840      0.99885428
       22919.880      0.99897915
       22919.920      0.99908004
       22919.960      0.99916184
       22920.000      0.99922864
       22920.040      0.99928398
       22920.080      0.99933086
       22920.120      0.99937151
       22920.160      0.99940734
       22920.200      0.99943926
       22920.240      0.99946785
       22920.280      0.99949353
       22920.320      0.99951665
       22920.360      0.99953748
       22920.400      0.99955625
       22920.440      0.99957315
       22920.480      0.99958834
       22920.520      0.99960198
       22920.560      0.99961422
       22920.600      0.99962521
       22920.640      0.99963511
       22920.680      0.99964406
       22920.720      0.99965220
       22920.760      0.99965968
       22920.800      0.99966662
       22920.840      0.99967314
       22920.880      0.99967930
       22920.920      0.99968516
       22920.960      0.99969074
       22921.000      0.99969606
       22921.040      0.99970115
       22921.080      0.99970601
       22921.120      0.99971066
       22921.160      0.99971512
       22921.200      0.99971939
       22921.240      0.99972349
       22921.280      0.99972743
       22921.320      0.99973123
       22921.360      0.99973489
       22921.400      0.99973841
       22921.440      0.99974181
       22921.480      0.99974508
       22921.520      0.99974824
       22921.560      0.99975128
       22921.600      0.99975421
       22921.640      0.99975703
       22921.680      0.99975975
       22921.720      0.99976236
       22921.760      0.99976487
       22921.800      0.99976729
       22921.840      0.99976962
       22921.880      0.99977186
       22921.920      0.99977401
       22921.960      0.99977609
       22922.000      0.99977808
       22922.040      0.99978000
       22922.080      0.99978184
       22922.120      0.99978362
       22922.160      0.99978533
       22922.200      0.99978698
       22922.240      0.99978858
       22922.280      0.99979011
       22922.320      0.99979160
       22922.360      0.99979303
       22922.400      0.99979442
       22922.440      0.99979576
       22922.480      0.99979706
       22922.520      0.99979831
       22922.560      0.99979953
       22922.600      0.99980070
       22922.640      0.99980184
       22922.680      0.99980294
       22922.720      0.99980401
       22922.760      0.99980505
       22922.800      0.99980605
       22922.840      0.99980703
       22922.880      0.99980798
       22922.920      0.99980890
       22922.960      0.99980980
       22923.000      0.99981068
       22923.040      0.99981153
       22923.080      0.99981237
       22923.120      0.99981319
       22923.160      0.99981400
       22923.200      0.99981479
       22923.240      0.99981556
       22923.280      0.99981633
       22923.320      0.99981709
       22923.360      0.99981784
       22923.400      0.99981858
       22923.440      0.99981931
       22923.480      0.99982003
       22923.520      0.99982074
       22923.560      0.99982145
       22923.600      0.99982214
       22923.640      0.99982283
       22923.680      0.99982351
       22923.720      0.99982418
       22923.760      0.99982484
       22923.800      0.99982550
       22923.840      0.99982614
       22923.880      0.99982677
       22923.920      0.99982740
       22923.960      0.99982802
       22924.000      0.99982862
       22924.040      0.99982922
       22924.080      0.99982981
       22924.120      0.99983039
       22924.160      0.99983096
