 #      wave           flux
22900.0 0.9999651299999999
22900.04 0.99996683
22900.08 0.99996725
22900.12 0.99996698
22900.16 0.99996637
22900.2 0.99996562
22900.24 0.99996484
22900.28 0.99996406
22900.32 0.9999633200000001
22900.36 0.99996263
22900.4 0.9999619799999999
22900.44 0.99996139
22900.48 0.99996086
22900.52 0.99996036
22900.56 0.9999599
22900.6 0.99995944
22900.64 0.99995895
22900.68 0.9999584199999999
22900.72 0.9999578
22900.76 0.99995707
22900.8 0.99995621
22900.84 0.9999551699999999
22900.88 0.99995395
22900.92 0.99995252
22900.96 0.99995086
22901.0 0.99994899
22901.04 0.9999469399999998
22901.08 0.9999447499999999
22901.12 0.9999424300000002
22901.16 0.99993992
22901.2 0.99993701
22901.24 0.99993316
22901.28 0.99992721
22901.32 0.99991679
22901.36 0.99989676
22901.4 0.9998553299999999
22901.44 0.9997657499999999
22901.48 0.9995709400000001
22901.52 0.99915868
22901.56 0.99832994
22901.6 0.99677328
22901.64 0.99407324
22901.68 0.9898047099999999
22901.72 0.9837624999999999
22901.76 0.97625859
22901.8 0.9682153899999999
22901.84 0.9610549499999999
22901.88 0.95636
22901.92 0.95532578
22901.96 0.95825061
22902.0 0.9643866
22902.04 0.97226286
22902.08 0.9802480899999999
22902.12 0.98709576
22902.16 0.9922240599999999
22902.2 0.99565318
22902.24 0.9977382899999999
22902.28 0.99889582
22902.32 0.99946918
22902.36 0.99971496
22902.4 0.99980902
22902.44 0.9998497999999999
22902.48 0.99987847
22902.52 0.99990536
22902.56 0.9999288899999998
22902.6 0.9999460899999999
22902.64 0.99995575
22902.68 0.9999584
22902.72 0.9999555999999998
22902.76 0.99994941
22902.8 0.9999419299999999
22902.84 0.9999349699999999
22902.88 0.99992968
22902.92 0.99992652
22902.96 0.99992542
22903.0 0.99992602
22903.04 0.99992786
22903.08 0.9999304199999999
22903.12 0.9999332099999999
22903.16 0.99993586
22903.2 0.9999380999999999
22903.24 0.99993985
22903.28 0.99994106
22903.32 0.99994176
22903.36 0.99994201
22903.4 0.99994184
22903.44 0.9999413199999999
22903.48 0.9999405099999998
22903.52 0.99993946
22903.56 0.99993824
22903.6 0.9999369
22903.64 0.9999355
22903.68 0.99993409
22903.72 0.99993274
22903.76 0.9999314599999999
22903.8 0.9999302999999999
22903.84 0.99992926
22903.88 0.9999283400000001
22903.92 0.99992752
22903.96 0.9999268099999999
22904.0 0.99992618
22904.04 0.99992563
22904.08 0.99992513
22904.12 0.99992469
22904.16 0.99992427
22904.2 0.99992388
22904.24 0.9999234899999999
22904.28 0.9999230999999998
22904.32 0.99992268
22904.36 0.99992224
22904.4 0.9999217699999999
22904.44 0.9999212499999999
22904.48 0.9999206999999999
22904.52 0.9999200999999999
22904.56 0.99991946
22904.6 0.99991878
22904.64 0.9999180599999999
22904.68 0.9999172999999999
22904.72 0.99991651
22904.76 0.9999156899999999
22904.8 0.99991483
22904.84 0.99991394
22904.88 0.99991301
22904.92 0.9999120599999999
22904.96 0.9999110899999999
22905.0 0.9999100799999999
22905.04 0.99990905
22905.08 0.99990799
22905.12 0.99990692
22905.16 0.9999058199999998
22905.2 0.9999047
22905.24 0.9999035600000001
22905.28 0.99990241
22905.32 0.9999012326999999
22905.36 0.9999000499999999
22905.4 0.9998988500000001
22905.44 0.99989764
22905.48 0.99989642
22905.52 0.99989518
22905.56 0.9998939399999999
22905.6 0.99989269
22905.64 0.9998914400000001
22905.68 0.99989017
22905.72 0.99988889
22905.76 0.9998875999999999
22905.8 0.9998862899999998
22905.84 0.9998849699999999
22905.88 0.99988363
22905.92 0.9998822700000001
22905.96 0.9998808899999999
22906.0 0.9998794899999999
22906.04 0.9998780599999999
22906.08 0.9998765999999999
22906.12 0.99987512
22906.16 0.9998736
22906.2 0.99987205
22906.24 0.9998704699999998
22906.28 0.99986885
22906.32 0.9998671999999998
22906.36 0.9998655
22906.4 0.99986376
22906.44 0.9998619799999999
22906.48 0.9998601599999999
22906.52 0.9998582899999999
22906.56 0.99985636
22906.6 0.9998543900000001
22906.64 0.99985237
22906.68 0.99985029
22906.72 0.9998481572999999
22906.76 0.99984596
22906.8 0.9998437099999999
22906.84 0.9998414
22906.88 0.99983902
22906.92 0.9998365900000001
22906.96 0.9998340799999998
22907.0 0.99983151
22907.04 0.99982888
22907.08 0.99982618
22907.12 0.9998234100000001
22907.16 0.9998205626999999
22907.2 0.9998176527000001
22907.24 0.99981467
22907.28 0.9998116199999999
22907.32 0.99980849
22907.36 0.9998052827
22907.4 0.9998020027
22907.44 0.9997986499999999
22907.48 0.9997952199999999
22907.52 0.9997917027
22907.56 0.9997881126999999
22907.6 0.9997844427000001
22907.64 0.99978069
22907.68 0.9997768527
22907.72 0.99977294
22907.76 0.99976893
22907.8 0.9997648427
22907.84 0.99976067
22907.88 0.9997564099999999
22907.92 0.9997520499999999
22907.96 0.99974761
22908.0 0.99974307
22908.04 0.99973844
22908.08 0.9997336973000001
22908.12 0.9997288299999999
22908.16 0.9997238373
22908.2 0.99971869
22908.24 0.9997133699999999
22908.28 0.9997078699999999
22908.32 0.9997021672999998
22908.36 0.9996962400000001
22908.4 0.9996900772999999
22908.44 0.9996836573000001
22908.48 0.9996769673
22908.52 0.99966998
22908.56 0.9996626873
22908.6 0.9996550673000001
22908.64 0.9996471073
22908.68 0.9996387799999998
22908.72 0.9996300773
22908.76 0.9996209773
22908.8 0.99961146
22908.84 0.9996015172999999
22908.88 0.9995911173
22908.92 0.99958025
22908.96 0.9995689
22909.0 0.9995570473
22909.04 0.9995446773000001
22909.08 0.9995317673
22909.12 0.9995182973
22909.16 0.9995042500000001
22909.2 0.99948961
22909.24 0.9994743599999999
22909.28 0.9994584499999999
22909.32 0.9994418527000001
22909.36 0.99942453
22909.4 0.9994064227
22909.44 0.9993874827
22909.48 0.9993676527
22909.52 0.9993468726999999
22909.56 0.9993251027
22909.6 0.9993022827
22909.64 0.9992783527
22909.68 0.9992532527
22909.72 0.9992269427
22909.76 0.9991993399999999
22909.8 0.9991703727
22909.84 0.9991399399999998
22909.88 0.99910787
22909.92 0.9990739373000002
22909.96 0.9990377973
22910.0 0.9989990718999999
22910.04 0.9989573219
22910.08 0.9989121218999999
22910.12 0.9988630219
22910.16 0.9988095692
22910.2 0.9987513192
22910.24 0.9986878164999999
22910.28 0.9986185992
22910.32 0.9985432192
22910.36 0.9984611919
22910.4 0.9983719946
22910.44 0.9982750145999999
22910.48 0.99816943
22910.52 0.99805415
22910.56 0.99792767
22910.6 0.9977881772999999
22910.64 0.9976335746
22910.68 0.9974614619000001
22910.72 0.9972690473000001
22910.76 0.9970529881
22910.8 0.9968090088999999
22910.84 0.9965313816
22910.88 0.9962126219
22910.92 0.9958433317000001
22910.96 0.9954116491
22911.0 0.9949022464999999
22911.04 0.9942955344
22911.08 0.9935666298
22911.12 0.9926824827
22911.16 0.9915976672
22911.2 0.9902510536
22911.24 0.9885631358
22911.28 0.9864348918999999
22911.32 0.9837505064000001
22911.36 0.9803896192000001
22911.4 0.9762515448
22911.44 0.9712975714
22911.48 0.9656081397999999
22911.52 0.9594391444000001
22911.56 0.9532489606
22911.6 0.9476703040000001
22911.64 0.9434056137999999
22911.68 0.9410660028
22911.72 0.9410068582
22911.76 0.9432251300000001
22911.8 0.9473585099999999
22911.84 0.95279068
22911.88 0.9588141999999998
22911.92 0.9647921899999999
22911.96 0.9702619717999998
22912.0 0.97496267
22912.04 0.9788052282
22912.08 0.9818158792
22912.12 0.9840753394
22912.16 0.9856736625
22912.2 0.9866813555999999
22912.24 0.9871355968
22912.28 0.987036316
22912.32 0.9863511133
22912.36 0.9850313616
22912.4 0.9830348138000001
22912.44 0.9803535027
22912.48 0.9770396236
22912.52 0.973215674
22912.56 0.9690648229000001
22912.6 0.9648054119
22912.64 0.9606549155
22912.68 0.9567955528
22912.72 0.9533502165
22912.76 0.9503731029999999
22912.8 0.947861816
22912.84 0.9457808608
22912.88 0.9440987513
22912.92 0.9428390293
22912.96 0.9421179466999999
22913.0 0.9421428823
22913.04 0.9431643694999998
22913.08 0.9453827885
22913.12 0.9488507675
22913.16 0.9534109713999999
22913.2 0.9587209966
22913.24 0.9643411715000001
22913.28 0.9698392074
22913.32 0.9748787442
22913.36 0.9792617782999999
22913.4 0.9829203950000001
22913.44 0.9858840758999998
22913.48 0.988240783
22913.52 0.9900995303999999
22913.56 0.9915653605
22913.6 0.9927283369000001
22913.64 0.9936603439999999
22913.68 0.9944164773000002
22913.72 0.9950380644
22913.76 0.9955556464
22913.8 0.9959917295
22913.84 0.9963629480999999
22913.88 0.9966816312
22913.92 0.9969570243999999
22913.96 0.9971962720999998
22914.0 0.9974050859
22914.04 0.9975882133999999
22914.08 0.9977496739999999
22914.12 0.9978929649
22914.16 0.9980211400000001
22914.2 0.9981367957
22914.24 0.9982419969999999
22914.28 0.998338355
22914.32 0.9984270544999999
22914.36 0.9985089492999999
22914.4 0.9985846841999999
22914.44 0.9986547928
22914.48 0.9987197453000001
22914.52 0.9987799712000001
22914.56 0.9988358632000001
22914.6 0.9988877653999999
22914.64 0.9989359916999999
22914.68 0.9989808424
22914.72 0.9990225712999999
22914.76 0.9990614180000001
22914.8 0.9990976138000001
22914.84 0.9991313658
22914.88 0.9991628828999999
22914.92 0.9991923352
22914.96 0.9992198928
22915.0 0.9992457134000001
22915.04 0.9992699327999999
22915.08 0.9992926897000001
22915.12 0.9993141172999999
22915.16 0.9993343352999999
22915.2 0.9993534705
22915.24 0.9993716171
22915.28 0.9993888697000001
22915.32 0.9994053155999999
22915.36 0.9994210210000001
22915.4 0.9994360300999998
22915.44 0.9994504045000001
22915.48 0.9994641821
22915.52 0.9994773899999999
22915.56 0.9994900573
22915.6 0.9995021956
22915.64 0.9995138322
22915.68 0.9995249861
22915.72 0.9995356737
22915.76 0.9995459148999999
22915.8 0.9995557267999999
22915.84 0.9995651278
22915.88 0.9995741413000001
22915.92 0.9995827836
22915.96 0.9995910684
22916.0 0.9995990173999999
22916.04 0.999606647
22916.08 0.9996139781
22916.12 0.9996210124999999
22916.16 0.9996277657
22916.2 0.9996342487
22916.24 0.9996404633
22916.28 0.9996464188
22916.32 0.9996521207
22916.36 0.9996575772
22916.4 0.9996627911999999
22916.44 0.9996677637
22916.48 0.9996725029999999
22916.52 0.9996770063999999
22916.56 0.9996812796
22916.6 0.9996853379999999
22916.64 0.9996891763
22916.68 0.9996928080999999
22916.72 0.9996962496
22916.76 0.9996995098
22916.8 0.9997026041
22916.84 0.9997055386
22916.88 0.9997083097
22916.92 0.9997109073999999
22916.96 0.9997132929999999
22917.0 0.9997153835
22917.04 0.9997170844999999
22917.08 0.999718269
22917.12 0.9997188107999999
22917.16 0.9997185795000001
22917.2 0.9997174246000001
22917.24 0.9997151752000001
22917.28 0.9997115592
22917.32 0.9997060709
22917.36 0.9996976715999999
22917.4 0.9996843417000001
22917.44 0.9996625891
22917.48 0.9996273430999999
22917.52 0.999571879
22917.56 0.9994878932
22917.6 0.9993675036999999
22917.64 0.9992084214999999
22917.68 0.9990209309
22917.72 0.9988332554999999
22917.76 0.9986867112
22917.8 0.9986205404999999
22917.84 0.9986535816
22917.88 0.9987721385999999
22917.92 0.9989391052000001
22917.96 0.9991124279999999
22918.0 0.9992575744999999
22918.04 0.999353464
22918.08 0.9993940093
22918.12 0.9993833490999999
22918.16 0.9993314313999999
22918.2 0.9992544266999999
22918.24 0.9991746031
22918.28 0.9991154992
22918.32 0.9990946256
22918.36 0.9991148153
22918.4 0.9991612664
22918.44 0.9992084984
22918.48 0.9992290341
22918.52 0.9991981927
22918.56 0.999094113
22918.6 0.9988986672
22918.64 0.9986049558999999
22918.68 0.9982320108999998
22918.72 0.9978336203999999
22918.76 0.9974881813
22918.8 0.9972777153999999
22918.84 0.9972529282
22918.88 0.9973977945
22918.92 0.9976321397000001
22918.96 0.9978457368999999
22919.0 0.9979308884999999
22919.04 0.9977962628
22919.08 0.9973666059999999
22919.12 0.9965942794
22919.16 0.9954930229
22919.2 0.9941769735
22919.24 0.9928738510999999
22919.28 0.9918893398999999
22919.32 0.9915075605000001
22919.36 0.9918535480999999
22919.4 0.9928160790999999
22919.44 0.9941156602
22919.48 0.9954412818999999
22919.52 0.9965579981
22919.56 0.9973474599999999
22919.6 0.9977938453
22919.64 0.9979432058
22919.68 0.9978693909999998
22919.72 0.9976623481
22919.76 0.9974280484999999
22919.8 0.9972765154
22919.84 0.9972907756
22919.88 0.9974926474
22919.92 0.9978362036999999
22919.96 0.9982388327
22920.0 0.9986177178
22920.04 0.9989178308
22920.08 0.9991199934999999
22920.12 0.9992297775000001
22920.16 0.9992650103999999
22920.2 0.9992475312
22920.24 0.9992016575999998
22920.28 0.9991553438999999
22920.32 0.9991351500999999
22920.36 0.999156618
22920.4 0.9992168281
22920.44 0.9992976029
22920.48 0.9993753722999998
22920.52 0.9994295892
22920.56 0.9994450534999999
22920.6 0.9994106341
22920.64 0.9993203528999999
22920.68 0.9991790680999999
22920.72 0.9990076471999999
22920.76 0.9988409303999999
22920.8 0.9987213106999999
22920.84 0.9986865121999999
22920.88 0.9987509391
22920.92 0.9988959009
22920.96 0.9990829583999998
22921.0 0.9992726411
22921.04 0.9994358837999999
22921.08 0.9995598402
22921.12 0.9996463733999998
22921.16 0.9997041064999999
22921.2 0.9997420216999999
22921.24 0.9997672685000001
22921.28 0.9997847254000001
22921.32 0.9997974441
22921.36 0.9998072605999999
22921.4 0.9998151499000001
22921.44 0.9998213663000001
22921.48 0.9998255521999999
22921.52 0.9998271127
22921.56 0.999825575
22921.6 0.9998209543000001
22921.64 0.999814031
22921.68 0.9998060362999999
22921.72 0.9997977151999999
22921.76 0.9997868128
22921.8 0.9997623414
22921.84 0.9996952292999999
22921.88 0.999524385
22921.92 0.9991370029000001
22921.96 0.9983456371
22922.0 0.9968638042
22922.04 0.994308395
22922.08 0.9902813142
22922.12 0.9845767485
22922.16 0.9774449961
22922.2 0.9697572349999999
22922.24 0.9629154314
22922.28 0.9584570139999999
22922.32 0.9574984456
22922.36 0.9602930693
22922.4 0.9661267173999999
22922.44 0.9736028253
22922.48 0.9811739543
22922.52 0.9876610266
22922.56 0.9925140725
22922.6 0.9957500638
22922.64 0.9977043827000001
22922.68 0.9987879365999999
22922.72 0.9993483793
22922.76 0.9996233947
22922.8 0.9997513717000001
22922.84 0.9998060326999999
22922.88 0.9998258775
22922.92 0.9998312296999998
22922.96 0.9998325964999999
22923.0 0.9998345166
22923.04 0.9998382064
22923.08 0.9998433268000001
22923.12 0.9998489702999999
22923.16 0.9998542820999999
22923.2 0.9998587503999998
22923.24 0.9998621858
22923.28 0.9998645785
22923.32 0.9998660511
22923.36 0.9998667527999999
22923.4 0.9998668636
22923.44 0.9998665582000001
22923.48 0.9998660100999999
22923.52 0.9998653603
22923.56 0.9998647334
22923.6 0.9998641847999999
22923.64 0.9998637491
22923.68 0.9998634243999999
22923.72 0.9998632070999999
22923.76 0.9998630826
22923.8 0.9998630346
22923.84 0.9998630493999999
22923.88 0.9998631123999999
22923.92 0.9998632109000001
22923.96 0.9998633331
22924.0 0.9998634698000002
22924.04 0.9998636164999999
22924.08 0.9998637659999998
22924.12 0.9998639254999999
22924.16 0.9998640758999999
22924.2 0.999864229
22924.24 0.9998643721
22924.28 0.9998645069999998
22924.32 0.9998646337
22924.36 0.9998647467
22924.4 0.9998648425000001
22924.44 0.9998649201
22924.48 0.9998649767
22924.52 0.9998650105
22924.56 0.9998650206999999
22924.6 0.9998650054
22924.64 0.9998649518999999
22924.68 0.9998648673999999
22924.72 0.9998647528000001
22924.76 0.9998646010000001
22924.8 0.9998644118
22924.84 0.9998641898999999
22924.88 0.999863937
22924.92 0.9998636486
22924.96 0.9998633338
22925.0 0.9998629998999999
22925.04 0.9998626387
22925.08 0.9998622565999999
22925.12 0.9998618544
22925.16 0.9998614377
22925.2 0.9998610027999999
22925.24 0.999860567
22925.28 0.9998601129999999
22925.32 0.9998596571999999
22925.36 0.9998591905
22925.4 0.9998587283
22925.44 0.9998582635
22925.48 0.9998578023
22925.52 0.9998573429
22925.56 0.9998568954
22925.6 0.9998564505999998
22925.64 0.9998560177
22925.68 0.9998555820999999
22925.72 0.9998551619999999
22925.76 0.9998547455000001
22925.8 0.9998543327
22925.84 0.9998539217
22925.88 0.9998535172
22925.92 0.9998531135
22925.96 0.9998527144000001
22926.0 0.9998523135999999
22926.04 0.9998519127
22926.08 0.9998515182
22926.12 0.9998511182999998
22926.16 0.9998507174999999
22926.2 0.9998503131
22926.24 0.9998499058999999
22926.28 0.9998494979
22926.32 0.9998490825999999
22926.36 0.99984866
22926.4 0.9998482375000001
22926.44 0.999847804
22926.48 0.9998473650999999
22926.52 0.9998469162000001
22926.56 0.999846461
22926.6 0.9998459957000001
22926.64 0.9998455168
22926.68 0.9998450316
22926.72 0.9998445318
22926.76 0.9998440219999999
22926.8 0.9998434939999999
22926.84 0.9998429605999999
22926.88 0.9998424044
22926.92 0.9998418382
22926.96 0.9998412565999999
22927.0 0.9998406531
22927.04 0.9998400351
22927.08 0.9998393989
22927.12 0.9998387436000001
22927.16 0.9998380692
22927.2 0.9998373757
22927.24 0.9998366639999999
22927.28 0.9998359304999999
22927.32 0.9998351732999999
22927.36 0.9998344016
22927.4 0.9998336079999999
22927.44 0.9998327952999999
22927.48 0.9998319617
22927.52 0.9998311108
22927.56 0.9998302353999999
22927.6 0.9998293463
22927.64 0.9998284354
22927.68 0.9998275063000001
22927.72 0.9998265572
22927.76 0.9998255907999999
22927.8 0.9998246015999999
22927.84 0.9998235987999999
22927.88 0.9998225696999999
22927.92 0.9998215268999999
22927.96 0.9998204659
22928.0 0.9998193894
22928.04 0.9998182884
22928.08 0.9998171719
22928.12 0.9998160362999998
22928.16 0.9998148816000001
22928.2 0.9998137068999999
22928.24 0.9998125166999999
22928.28 0.9998113111
22928.32 0.9998100809
22928.36 0.9998088397999999
22928.4 0.9998075814
22928.44 0.9998063002999998
22928.48 0.9998050037
22928.52 0.9998036888999999
22928.56 0.9998023578
22928.6 0.9998010048
22928.64 0.9997996418
22928.68 0.9997982587999998
22928.72 0.9997968595
22928.76 0.9997954401
22928.8 0.9997940089
22928.84 0.9997925539999999
22928.88 0.9997910828000001
22928.92 0.9997895952
22928.96 0.9997880876
22929.0 0.9997865627
22929.04 0.9997850132999999
22929.08 0.9997834474999999
22929.12 0.9997818553999999
22929.16 0.999780246
22929.2 0.9997786084000001
22929.24 0.9997769543999999
22929.28 0.9997752723
22929.32 0.9997735629
22929.36 0.9997718353
22929.4 0.9997700785999999
22929.44 0.9997682956
22929.48 0.9997664853
22929.52 0.999764645
22929.56 0.9997627792999999
22929.6 0.9997608872
22929.64 0.9997589652
22929.68 0.9997570104
22929.72 0.9997550264999999
22929.76 0.9997530108999999
22929.8 0.999750968
22929.84 0.9997488877999999
22929.88 0.9997467777
22929.92 0.9997446312
22929.96 0.9997424510999999
22930.0 0.9997402383
22930.04 0.9997379882
22930.08 0.9997357055
22930.12 0.9997333809
22930.16 0.9997310264
22930.2 0.9997286309999999
22930.24 0.9997261947
22930.28 0.9997237220999999
22930.32 0.9997212095
22930.36 0.9997186550999999
22930.4 0.9997160597999999
22930.44 0.9997134192
22930.48 0.9997107266999999
22930.52 0.9997079897
22930.56 0.9997051946
22930.6 0.9997023321999999
22930.64 0.9996994134999999
22930.68 0.9996964247999998
22930.72 0.9996933643
22930.76 0.9996902256
22930.8 0.9996870005999999
22930.84 0.9996836911
22930.88 0.9996802888
22930.92 0.9996767983999999
22930.96 0.9996732062
22931.0 0.9996695076
22931.04 0.9996656999
22931.08 0.9996617841
22931.12 0.9996577491999998
22931.16 0.9996535897000001
22931.2 0.9996493102
22931.24 0.9996448952999999
22931.28 0.9996403521999999
22931.32 0.9996356636
22931.36 0.9996308351
22931.4 0.9996258591999999
22931.44 0.9996207305999999
22931.48 0.9996154475000001
22931.52 0.9996100015999999
22931.56 0.9996043921
22931.6 0.9995986116
22931.64 0.9995926602
22931.68 0.9995865279
22931.72 0.9995802101
22931.76 0.9995737123
22931.8 0.9995670190000001
22931.84 0.9995601275
22931.88 0.9995530386999999
22931.92 0.9995457462
22931.96 0.9995382400999999
22932.0 0.9995305203
22932.04 0.9995225776999999
22932.08 0.9995144042
22932.12 0.9995059916000001
22932.16 0.9994973270999998
22932.2 0.9994883997999999
22932.24 0.9994792033999998
22932.28 0.9994697223999998
22932.32 0.9994599432
22932.36 0.9994498621000001
22932.4 0.9994394655
22932.44 0.9994287389000001
22932.48 0.9994176731
22932.52 0.9994062627
22932.56 0.9993944905
22932.6 0.9993823426999999
22932.64 0.9993698167
22932.68 0.9993568879000001
22932.72 0.9993435544999999
22932.76 0.9993297965
22932.8 0.9993155774999999
22932.84 0.9993008694000001
22932.88 0.9992855903000001
22932.92 0.9992696803
22932.96 0.9992530293999998
22933.0 0.9992355411999998
