 #      wave           flux
       22900.000      0.99992306
       22900.040      0.99992476
       22900.080      0.99992516
       22900.120      0.99992487
       22900.160      0.99992423
       22900.200      0.99992344
       22900.240      0.99992259
       22900.280      0.99992172
       22900.320      0.99992085
       22900.360      0.99992000
       22900.400      0.99991915
       22900.440      0.99991832
       22900.480      0.99991748
       22900.520      0.99991663
       22900.560      0.99991574
       22900.600      0.99991476
       22900.640      0.99991366
       22900.680      0.99991240
       22900.720      0.99991093
       22900.760      0.99990920
       22900.800      0.99990718
       22900.840      0.99990482
       22900.880      0.99990208
       22900.920      0.99989893
       22900.960      0.99989536
       22901.000      0.99989137
       22901.040      0.99988701
       22901.080      0.99988231
       22901.120      0.99987727
       22901.160      0.99987181
       22901.200      0.99986561
       22901.240      0.99985797
       22901.280      0.99984757
       22901.320      0.99983228
       22901.360      0.99980828
       22901.400      0.99976812
       22901.440      0.99969636
       22901.480      0.99956169
       22901.520      0.99930478
       22901.560      0.99882442
       22901.600      0.99796965
       22901.640      0.99654328
       22901.680      0.99434780
       22901.720      0.99131985
       22901.760      0.98764671
       22901.800      0.98376207
       22901.840      0.98030724
       22901.880      0.97802418
       22901.920      0.97750715
       22901.960      0.97892005
       22902.000      0.98190083
       22902.040      0.98573519
       22902.080      0.98964060
       22902.120      0.99302402
       22902.160      0.99560176
       22902.200      0.99736729
       22902.240      0.99847557
       22902.280      0.99912191
       22902.320      0.99946959
       22902.360      0.99963956
       22902.400      0.99971688
       22902.440      0.99975401
       22902.480      0.99977586
       22902.520      0.99979067
       22902.560      0.99979943
       22902.600      0.99980178
       22902.640      0.99979779
       22902.680      0.99978534
       22902.720      0.99975506
       22902.760      0.99968348
       22902.800      0.99952982
       22902.840      0.99923861
       22902.880      0.99874191
       22902.920      0.99796399
       22902.960      0.99684242
       22903.000      0.99536959
       22903.040      0.99363679
       22903.080      0.99185990
       22903.120      0.99035372
       22903.160      0.98944339
       22903.200      0.98935046
       22903.240      0.99009147
       22903.280      0.99146742
       22903.320      0.99317040
       22903.360      0.99490238
       22903.400      0.99645071
       22903.440      0.99769273
       22903.480      0.99858376
       22903.520      0.99915181
       22903.560      0.99947455
       22903.600      0.99964290
       22903.640      0.99972960
       22903.680      0.99977681
       22903.720      0.99980451
       22903.760      0.99982130
       22903.800      0.99983094
       22903.840      0.99983551
       22903.880      0.99983651
       22903.920      0.99983533
       22903.960      0.99983321
       22904.000      0.99983116
       22904.040      0.99982973
       22904.080      0.99982899
       22904.120      0.99982866
       22904.160      0.99982830
       22904.200      0.99982743
       22904.240      0.99982568
       22904.280      0.99982286
       22904.320      0.99981915
       22904.360      0.99981502
       22904.400      0.99981110
       22904.440      0.99980806
       22904.480      0.99980641
       22904.520      0.99980631
       22904.560      0.99980728
       22904.600      0.99980796
       22904.640      0.99980640
       22904.680      0.99980044
       22904.720      0.99978810
       22904.760      0.99976787
       22904.800      0.99973870
       22904.840      0.99969875
       22904.880      0.99964013
       22904.920      0.99953729
       22904.960      0.99933059
       22905.000      0.99891795
       22905.040      0.99817597
       22905.080      0.99699942
       22905.120      0.99534425
       22905.160      0.99325955
       22905.200      0.99091783
       22905.240      0.98865075
       22905.280      0.98692138
       22905.320      0.98617265
       22905.360      0.98662537
       22905.400      0.98814264
       22905.440      0.99031793
       22905.480      0.99267371
       22905.520      0.99483553
       22905.560      0.99659715
       22905.600      0.99788725
       22905.640      0.99872974
       22905.680      0.99921424
       22905.720      0.99945896
       22905.760      0.99957341
       22905.800      0.99963101
       22905.840      0.99966698
       22905.880      0.99969325
       22905.920      0.99971200
       22905.960      0.99972346
       22906.000      0.99972828
       22906.040      0.99972781
       22906.080      0.99972382
       22906.120      0.99971820
       22906.160      0.99971253
       22906.200      0.99970782
       22906.240      0.99970443
       22906.280      0.99970228
       22906.320      0.99970102
       22906.360      0.99970026
       22906.400      0.99969957
       22906.440      0.99969861
       22906.480      0.99969715
       22906.520      0.99969509
       22906.560      0.99969243
       22906.600      0.99968918
       22906.640      0.99968541
       22906.680      0.99968116
       22906.720      0.99967651
       22906.760      0.99967152
       22906.800      0.99966625
       22906.840      0.99966076
       22906.880      0.99965513
       22906.920      0.99964939
       22906.960      0.99964361
       22907.000      0.99963781
       22907.040      0.99963201
       22907.080      0.99962620
       22907.120      0.99962037
       22907.160      0.99961450
       22907.200      0.99960858
       22907.240      0.99960258
       22907.280      0.99959648
       22907.320      0.99959027
       22907.360      0.99958392
       22907.400      0.99957741
       22907.440      0.99957072
       22907.480      0.99956384
       22907.520      0.99955674
       22907.560      0.99954942
       22907.600      0.99954186
       22907.640      0.99953407
       22907.680      0.99952604
       22907.720      0.99951777
       22907.760      0.99950926
       22907.800      0.99950050
       22907.840      0.99949149
       22907.880      0.99948223
       22907.920      0.99947272
       22907.960      0.99946295
       22908.000      0.99945292
       22908.040      0.99944262
       22908.080      0.99943204
       22908.120      0.99942113
       22908.160      0.99940987
       22908.200      0.99939820
       22908.240      0.99938608
       22908.280      0.99937345
       22908.320      0.99936027
       22908.360      0.99934649
       22908.400      0.99933205
       22908.440      0.99931690
       22908.480      0.99930100
       22908.520      0.99928432
       22908.560      0.99926684
       22908.600      0.99924859
       22908.640      0.99922965
       22908.680      0.99921021
       22908.720      0.99919049
       22908.760      0.99917072
       22908.800      0.99915108
       22908.840      0.99913166
       22908.880      0.99911226
       22908.920      0.99909231
       22908.960      0.99907079
       22909.000      0.99904639
       22909.040      0.99901775
       22909.080      0.99898349
       22909.120      0.99894218
       22909.160      0.99889190
       22909.200      0.99882861
       22909.240      0.99874178
       22909.280      0.99860576
       22909.320      0.99836821
       22909.360      0.99794710
       22909.400      0.99725122
       22909.440      0.99621263
       22909.480      0.99481908
       22909.520      0.99312994
       22909.560      0.99128734
       22909.600      0.98953463
       22909.640      0.98819531
       22909.680      0.98757481
       22909.720      0.98782922
       22909.760      0.98887159
       22909.800      0.99042962
       22909.840      0.99217661
       22909.880      0.99383807
       22909.920      0.99522880
       22909.960      0.99625413
       22910.000      0.99691242
       22910.040      0.99727384
       22910.080      0.99743453
       22910.120      0.99747608
       22910.160      0.99744967
       22910.200      0.99738345
       22910.240      0.99729210
       22910.280      0.99718285
       22910.320      0.99705916
       22910.360      0.99692278
       22910.400      0.99677464
       22910.440      0.99661515
       22910.480      0.99644418
       22910.520      0.99626093
       22910.560      0.99606408
       22910.600      0.99585203
       22910.640      0.99562304
       22910.680      0.99537523
       22910.720      0.99510665
       22910.760      0.99481528
       22910.800      0.99449897
       22910.840      0.99415552
       22910.880      0.99378258
       22910.920      0.99337763
       22910.960      0.99293783
       22911.000      0.99245978
       22911.040      0.99193961
       22911.080      0.99137316
       22911.120      0.99075644
       22911.160      0.99008609
       22911.200      0.98936015
       22911.240      0.98857904
       22911.280      0.98774623
       22911.320      0.98686777
       22911.360      0.98595192
       22911.400      0.98500956
       22911.440      0.98405575
       22911.480      0.98311268
       22911.520      0.98221248
       22911.560      0.98139524
       22911.600      0.98070442
       22911.640      0.98018251
       22911.680      0.97986588
       22911.720      0.97977760
       22911.760      0.97991928
       22911.800      0.98027097
       22911.840      0.98079916
       22911.880      0.98146367
       22911.920      0.98222232
       22911.960      0.98303402
       22912.000      0.98386008
       22912.040      0.98466621
       22912.080      0.98542566
       22912.120      0.98612188
       22912.160      0.98674697
       22912.200      0.98729828
       22912.240      0.98777582
       22912.280      0.98818079
       22912.320      0.98851479
       22912.360      0.98877952
       22912.400      0.98897656
       22912.440      0.98910726
       22912.480      0.98917268
       22912.520      0.98917368
       22912.560      0.98911104
       22912.600      0.98898561
       22912.640      0.98879856
       22912.680      0.98855194
       22912.720      0.98824968
       22912.760      0.98789918
       22912.800      0.98751323
       22912.840      0.98711010
       22912.880      0.98671183
       22912.920      0.98634276
       22912.960      0.98602882
       22913.000      0.98579674
       22913.040      0.98567179
       22913.080      0.98567455
       22913.120      0.98581626
       22913.160      0.98609465
       22913.200      0.98649599
       22913.240      0.98700006
       22913.280      0.98758356
       22913.320      0.98822250
       22913.360      0.98889393
       22913.400      0.98957627
       22913.440      0.99024974
       22913.480      0.99089762
       22913.520      0.99150811
       22913.560      0.99207542
       22913.600      0.99259835
       22913.640      0.99307836
       22913.680      0.99351823
       22913.720      0.99392128
       22913.760      0.99429095
       22913.800      0.99463063
       22913.840      0.99494354
       22913.880      0.99523260
       22913.920      0.99550023
       22913.960      0.99574832
       22914.000      0.99597839
       22914.040      0.99619172
       22914.080      0.99638951
       22914.120      0.99657290
       22914.160      0.99674299
       22914.200      0.99690086
       22914.240      0.99704757
       22914.280      0.99718407
       22914.320      0.99731120
       22914.360      0.99742970
       22914.400      0.99754021
       22914.440      0.99764336
       22914.480      0.99773975
       22914.520      0.99782996
       22914.560      0.99791458
       22914.600      0.99799415
       22914.640      0.99806917
       22914.680      0.99814009
       22914.720      0.99820723
       22914.760      0.99827083
       22914.800      0.99833108
       22914.840      0.99838815
       22914.880      0.99844217
       22914.920      0.99849329
       22914.960      0.99854167
       22915.000      0.99858742
       22915.040      0.99863070
       22915.080      0.99867165
       22915.120      0.99871040
       22915.160      0.99874710
       22915.200      0.99878188
       22915.240      0.99881488
       22915.280      0.99884625
       22915.320      0.99887612
       22915.360      0.99890462
       22915.400      0.99893188
       22915.440      0.99895802
       22915.480      0.99898311
       22915.520      0.99900723
       22915.560      0.99903041
       22915.600      0.99905271
       22915.640      0.99907414
       22915.680      0.99909474
       22915.720      0.99911454
       22915.760      0.99913356
       22915.800      0.99915185
       22915.840      0.99916942
       22915.880      0.99918631
       22915.920      0.99920254
       22915.960      0.99921814
       22916.000      0.99923315
       22916.040      0.99924759
       22916.080      0.99926149
       22916.120      0.99927488
       22916.160      0.99928779
       22916.200      0.99930024
       22916.240      0.99931226
       22916.280      0.99932385
       22916.320      0.99933505
       22916.360      0.99934585
       22916.400      0.99935628
       22916.440      0.99936633
       22916.480      0.99937603
       22916.520      0.99938538
       22916.560      0.99939439
       22916.600      0.99940308
       22916.640      0.99941145
       22916.680      0.99941951
       22916.720      0.99942727
       22916.760      0.99943475
       22916.800      0.99944195
       22916.840      0.99944889
       22916.880      0.99945556
       22916.920      0.99946200
       22916.960      0.99946819
       22917.000      0.99947414
       22917.040      0.99947986
       22917.080      0.99948533
       22917.120      0.99949054
       22917.160      0.99949549
       22917.200      0.99950015
       22917.240      0.99950452
       22917.280      0.99950858
       22917.320      0.99951232
       22917.360      0.99951572
       22917.400      0.99951876
       22917.440      0.99952144
       22917.480      0.99952374
       22917.520      0.99952565
       22917.560      0.99952714
       22917.600      0.99952822
       22917.640      0.99952885
       22917.680      0.99952903
       22917.720      0.99952875
       22917.760      0.99952797
       22917.800      0.99952669
       22917.840      0.99952487
       22917.880      0.99952249
       22917.920      0.99951951
       22917.960      0.99951589
       22918.000      0.99951160
       22918.040      0.99950660
       22918.080      0.99950083
       22918.120      0.99949422
       22918.160      0.99948662
       22918.200      0.99947783
       22918.240      0.99946755
       22918.280      0.99945540
       22918.320      0.99944096
       22918.360      0.99942380
       22918.400      0.99940348
       22918.440      0.99937951
       22918.480      0.99935138
       22918.520      0.99931849
       22918.560      0.99928007
       22918.600      0.99923506
       22918.640      0.99918205
       22918.680      0.99911916
       22918.720      0.99904383
       22918.760      0.99895229
       22918.800      0.99883905
       22918.840      0.99869685
       22918.880      0.99851718
       22918.920      0.99829051
       22918.960      0.99800636
       22919.000      0.99765370
       22919.040      0.99722287
       22919.080      0.99670963
       22919.120      0.99612153
       22919.160      0.99548739
       22919.200      0.99486410
       22919.240      0.99432846
       22919.280      0.99396038
       22919.320      0.99382404
       22919.360      0.99394647
       22919.400      0.99430413
       22919.440      0.99483507
       22919.480      0.99546005
       22919.520      0.99610113
       22919.560      0.99669846
       22919.600      0.99722040
       22919.640      0.99765821
       22919.680      0.99801616
       22919.720      0.99830460
       22919.760      0.99853535
       22919.800      0.99871927
       22919.840      0.99886583
       22919.880      0.99898328
       22919.920      0.99907864
       22919.960      0.99915736
       22920.000      0.99922313
       22920.040      0.99927833
       22920.080      0.99932460
       22920.120      0.99936326
       22920.160      0.99939555
       22920.200      0.99942267
       22920.240      0.99944568
       22920.280      0.99946520
       22920.320      0.99948077
       22920.360      0.99948994
       22920.400      0.99948711
       22920.440      0.99946210
       22920.480      0.99939713
       22920.520      0.99926048
       22920.560      0.99899679
       22920.600      0.99851812
       22920.640      0.99770749
       22920.680      0.99644633
       22920.720      0.99466965
       22920.760      0.99243993
       22920.800      0.99000738
       22920.840      0.98780090
       22920.880      0.98631371
       22920.920      0.98592319
       22920.960      0.98673410
       22921.000      0.98853456
       22921.040      0.99088522
       22921.080      0.99329763
       22921.120      0.99539817
       22921.160      0.99700520
       22921.200      0.99810945
       22921.240      0.99880326
       22921.280      0.99920969
       22921.320      0.99943487
       22921.360      0.99955204
       22921.400      0.99960836
       22921.440      0.99963380
       22921.480      0.99964593
       22921.520      0.99965278
       22921.560      0.99965661
       22921.600      0.99965729
       22921.640      0.99965448
       22921.680      0.99964888
       22921.720      0.99964143
       22921.760      0.99963082
       22921.800      0.99960947
       22921.840      0.99955787
       22921.880      0.99943944
       22921.920      0.99919594
       22921.960      0.99873777
       22922.000      0.99793019
       22922.040      0.99659291
       22922.080      0.99454570
       22922.120      0.99170277
       22922.160      0.98819092
       22922.200      0.98443014
       22922.240      0.98109418
       22922.280      0.97892453
       22922.320      0.97846130
       22922.360      0.97982513
       22922.400      0.98266722
       22922.440      0.98631203
       22922.480      0.99002149
       22922.520      0.99323465
       22922.560      0.99568189
       22922.600      0.99735619
       22922.640      0.99840361
       22922.680      0.99901241
       22922.720      0.99934746
       22922.760      0.99952651
       22922.800      0.99962058
       22922.840      0.99966906
       22922.880      0.99969380
       22922.920      0.99970734
       22922.960      0.99971666
       22923.000      0.99972503
       22923.040      0.99973343
       22923.080      0.99974177
       22923.120      0.99974954
       22923.160      0.99975625
       22923.200      0.99976165
       22923.240      0.99976572
       22923.280      0.99976856
       22923.320      0.99977038
       22923.360      0.99977140
       22923.400      0.99977184
       22923.440      0.99977195
       22923.480      0.99977195
       22923.520      0.99977202
       22923.560      0.99977229
       22923.600      0.99977283
       22923.640      0.99977363
       22923.680      0.99977467
       22923.720      0.99977589
       22923.760      0.99977725
       22923.800      0.99977867
       22923.840      0.99978011
       22923.880      0.99978151
       22923.920      0.99978281
       22923.960      0.99978398
       22924.000      0.99978501
       22924.040      0.99978589
       22924.080      0.99978661
       22924.120      0.99978719
       22924.160      0.99978764
