 #      wave           flux
       22900.000      0.99997690
       22900.040      0.99997886
       22900.080      0.99997978
       22900.120      0.99998016
       22900.160      0.99998025
       22900.200      0.99998022
       22900.240      0.99998012
       22900.280      0.99998001
       22900.320      0.99997988
       22900.360      0.99997975
       22900.400      0.99997961
       22900.440      0.99997947
       22900.480      0.99997931
       22900.520      0.99997916
       22900.560      0.99997899
       22900.600      0.99997881
       22900.640      0.99997863
       22900.680      0.99997844
       22900.720      0.99997823
       22900.760      0.99997802
       22900.800      0.99997779
       22900.840      0.99997755
       22900.880      0.99997729
       22900.920      0.99997701
       22900.960      0.99997671
       22901.000      0.99997638
       22901.040      0.99997602
       22901.080      0.99997562
       22901.120      0.99997518
       22901.160      0.99997470
       22901.200      0.99997417
       22901.240      0.99997359
       22901.280      0.99997295
       22901.320      0.99997226
       22901.360      0.99997150
       22901.400      0.99997067
       22901.440      0.99996978
       22901.480      0.99996881
       22901.520      0.99996777
       22901.560      0.99996665
       22901.600      0.99996547
       22901.640      0.99996425
       22901.680      0.99996300
       22901.720      0.99996177
       22901.760      0.99996061
       22901.800      0.99995956
       22901.840      0.99995865
       22901.880      0.99995794
       22901.920      0.99995745
       22901.960      0.99995718
       22902.000      0.99995711
       22902.040      0.99995714
       22902.080      0.99995709
       22902.120      0.99995672
       22902.160      0.99995577
       22902.200      0.99995396
       22902.240      0.99995103
       22902.280      0.99994674
       22902.320      0.99994092
       22902.360      0.99993352
       22902.400      0.99992478
       22902.440      0.99991528
       22902.480      0.99990588
       22902.520      0.99989721
       22902.560      0.99988888
       22902.600      0.99987808
       22902.640      0.99985765
       22902.680      0.99981435
       22902.720      0.99972727
       22902.760      0.99956387
       22902.800      0.99927150
       22902.840      0.99876538
       22902.880      0.99792470
       22902.920      0.99661163
       22902.960      0.99471784
       22903.000      0.99223356
       22903.040      0.98932114
       22903.080      0.98634915
       22903.120      0.98383937
       22903.160      0.98231984
       22903.200      0.98214162
       22903.240      0.98334769
       22903.280      0.98565480
       22903.320      0.98856218
       22903.360      0.99153079
       22903.400      0.99414547
       22903.440      0.99619138
       22903.480      0.99764122
       22903.520      0.99858751
       22903.560      0.99916403
       22903.600      0.99949738
       22903.640      0.99968440
       22903.680      0.99978645
       22903.720      0.99983973
       22903.760      0.99986618
       22903.800      0.99987952
       22903.840      0.99988791
       22903.880      0.99989528
       22903.920      0.99990292
       22903.960      0.99991080
       22904.000      0.99991841
       22904.040      0.99992519
       22904.080      0.99993082
       22904.120      0.99993521
       22904.160      0.99993843
       22904.200      0.99994061
       22904.240      0.99994192
       22904.280      0.99994255
       22904.320      0.99994268
       22904.360      0.99994250
       22904.400      0.99994215
       22904.440      0.99994176
       22904.480      0.99994140
       22904.520      0.99994109
       22904.560      0.99994085
       22904.600      0.99994067
       22904.640      0.99994053
       22904.680      0.99994043
       22904.720      0.99994035
       22904.760      0.99994028
       22904.800      0.99994019
       22904.840      0.99994009
       22904.880      0.99993996
       22904.920      0.99993981
       22904.960      0.99993963
       22905.000      0.99993942
       22905.040      0.99993918
       22905.080      0.99993892
       22905.120      0.99993864
       22905.160      0.99993832
       22905.200      0.99993799
       22905.240      0.99993764
       22905.280      0.99993726
       22905.320      0.99993687
       22905.360      0.99993646
       22905.400      0.99993603
       22905.440      0.99993559
       22905.480      0.99993513
       22905.520      0.99993466
       22905.560      0.99993418
       22905.600      0.99993369
       22905.640      0.99993318
       22905.680      0.99993267
       22905.720      0.99993215
       22905.760      0.99993161
       22905.800      0.99993107
       22905.840      0.99993051
       22905.880      0.99992994
       22905.920      0.99992936
       22905.960      0.99992877
       22906.000      0.99992816
       22906.040      0.99992754
       22906.080      0.99992691
       22906.120      0.99992626
       22906.160      0.99992560
       22906.200      0.99992491
       22906.240      0.99992422
       22906.280      0.99992350
       22906.320      0.99992277
       22906.360      0.99992202
       22906.400      0.99992125
       22906.440      0.99992046
       22906.480      0.99991965
       22906.520      0.99991882
       22906.560      0.99991795
       22906.600      0.99991706
       22906.640      0.99991613
       22906.680      0.99991517
       22906.720      0.99991417
       22906.760      0.99991312
       22906.800      0.99991202
       22906.840      0.99991088
       22906.880      0.99990968
       22906.920      0.99990843
       22906.960      0.99990711
       22907.000      0.99990573
       22907.040      0.99990428
       22907.080      0.99990277
       22907.120      0.99990117
       22907.160      0.99989950
       22907.200      0.99989776
       22907.240      0.99989592
       22907.280      0.99989401
       22907.320      0.99989201
       22907.360      0.99988992
       22907.400      0.99988775
       22907.440      0.99988549
       22907.480      0.99988315
       22907.520      0.99988073
       22907.560      0.99987823
       22907.600      0.99987565
       22907.640      0.99987299
       22907.680      0.99987025
       22907.720      0.99986744
       22907.760      0.99986455
       22907.800      0.99986158
       22907.840      0.99985855
       22907.880      0.99985544
       22907.920      0.99985226
       22907.960      0.99984901
       22908.000      0.99984569
       22908.040      0.99984231
       22908.080      0.99983888
       22908.120      0.99983540
       22908.160      0.99983188
       22908.200      0.99982835
       22908.240      0.99982483
       22908.280      0.99982132
       22908.320      0.99981785
       22908.360      0.99981444
       22908.400      0.99981108
       22908.440      0.99980776
       22908.480      0.99980444
       22908.520      0.99980101
       22908.560      0.99979732
       22908.600      0.99979314
       22908.640      0.99978826
       22908.680      0.99978243
       22908.720      0.99977543
       22908.760      0.99976705
       22908.800      0.99975713
       22908.840      0.99974562
       22908.880      0.99973265
       22908.920      0.99971867
       22908.960      0.99970441
       22909.000      0.99969052
       22909.040      0.99967695
       22909.080      0.99966197
       22909.120      0.99964057
       22909.160      0.99960274
       22909.200      0.99953221
       22909.240      0.99940321
       22909.280      0.99917369
       22909.320      0.99877442
       22909.360      0.99809932
       22909.400      0.99701137
       22909.440      0.99537583
       22909.480      0.99312051
       22909.520      0.99031260
       22909.560      0.98722214
       22909.600      0.98431717
       22909.640      0.98216071
       22909.680      0.98123490
       22909.720      0.98175763
       22909.760      0.98357485
       22909.800      0.98624855
       22909.840      0.98925238
       22909.880      0.99213364
       22909.920      0.99457590
       22909.960      0.99641473
       22910.000      0.99765320
       22910.040      0.99841490
       22910.080      0.99885067
       22910.120      0.99908634
       22910.160      0.99920844
       22910.200      0.99926854
       22910.240      0.99929450
       22910.280      0.99930065
       22910.320      0.99929443
       22910.360      0.99928001
       22910.400      0.99926005
       22910.440      0.99923646
       22910.480      0.99921055
       22910.520      0.99918306
       22910.560      0.99915435
       22910.600      0.99912449
       22910.640      0.99909343
       22910.680      0.99906102
       22910.720      0.99902701
       22910.760      0.99899103
       22910.800      0.99895259
       22910.840      0.99891115
       22910.880      0.99886614
       22910.920      0.99881697
       22910.960      0.99876305
       22911.000      0.99870379
       22911.040      0.99863860
       22911.080      0.99856695
       22911.120      0.99848837
       22911.160      0.99840256
       22911.200      0.99830952
       22911.240      0.99820985
       22911.280      0.99810478
       22911.320      0.99799610
       22911.360      0.99788585
       22911.400      0.99777625
       22911.440      0.99766955
       22911.480      0.99756805
       22911.520      0.99747404
       22911.560      0.99738980
       22911.600      0.99731753
       22911.640      0.99725927
       22911.680      0.99721676
       22911.720      0.99719114
       22911.760      0.99718265
       22911.800      0.99719061
       22911.840      0.99721374
       22911.880      0.99725047
       22911.920      0.99729905
       22911.960      0.99735769
       22912.000      0.99742453
       22912.040      0.99749774
       22912.080      0.99757547
       22912.120      0.99765587
       22912.160      0.99773708
       22912.200      0.99781727
       22912.240      0.99789459
       22912.280      0.99796726
       22912.320      0.99803355
       22912.360      0.99809190
       22912.400      0.99814106
       22912.440      0.99818028
       22912.480      0.99820946
       22912.520      0.99822897
       22912.560      0.99823939
       22912.600      0.99824147
       22912.640      0.99823601
       22912.680      0.99822382
       22912.720      0.99820573
       22912.760      0.99818257
       22912.800      0.99815519
       22912.840      0.99812441
       22912.880      0.99809107
       22912.920      0.99805600
       22912.960      0.99802002
       22913.000      0.99798394
       22913.040      0.99794851
       22913.080      0.99791442
       22913.120      0.99788221
       22913.160      0.99785220
       22913.200      0.99782454
       22913.240      0.99779929
       22913.280      0.99777644
       22913.320      0.99775596
       22913.360      0.99773781
       22913.400      0.99772193
       22913.440      0.99770829
       22913.480      0.99769683
       22913.520      0.99768750
       22913.560      0.99768025
       22913.600      0.99767504
       22913.640      0.99767181
       22913.680      0.99767051
       22913.720      0.99767110
       22913.760      0.99767352
       22913.800      0.99767773
       22913.840      0.99768368
       22913.880      0.99769131
       22913.920      0.99770057
       22913.960      0.99771143
       22914.000      0.99772382
       22914.040      0.99773770
       22914.080      0.99775302
       22914.120      0.99776973
       22914.160      0.99778778
       22914.200      0.99780711
       22914.240      0.99782769
       22914.280      0.99784946
       22914.320      0.99787237
       22914.360      0.99789637
       22914.400      0.99792142
       22914.440      0.99794745
       22914.480      0.99797443
       22914.520      0.99800231
       22914.560      0.99803102
       22914.600      0.99806054
       22914.640      0.99809079
       22914.680      0.99812175
       22914.720      0.99815334
       22914.760      0.99818554
       22914.800      0.99821828
       22914.840      0.99825152
       22914.880      0.99828520
       22914.920      0.99831929
       22914.960      0.99835372
       22915.000      0.99838845
       22915.040      0.99842343
       22915.080      0.99845861
       22915.120      0.99849394
       22915.160      0.99852938
       22915.200      0.99856486
       22915.240      0.99860034
       22915.280      0.99863578
       22915.320      0.99867112
       22915.360      0.99870631
       22915.400      0.99874130
       22915.440      0.99877605
       22915.480      0.99881050
       22915.520      0.99884461
       22915.560      0.99887832
       22915.600      0.99891159
       22915.640      0.99894436
       22915.680      0.99897659
       22915.720      0.99900823
       22915.760      0.99903922
       22915.800      0.99906954
       22915.840      0.99909912
       22915.880      0.99912795
       22915.920      0.99915601
       22915.960      0.99918329
       22916.000      0.99920979
       22916.040      0.99923553
       22916.080      0.99926052
       22916.120      0.99928476
       22916.160      0.99930828
       22916.200      0.99933107
       22916.240      0.99935317
       22916.280      0.99937457
       22916.320      0.99939529
       22916.360      0.99941534
       22916.400      0.99943474
       22916.440      0.99945349
       22916.480      0.99947161
       22916.520      0.99948912
       22916.560      0.99950602
       22916.600      0.99952233
       22916.640      0.99953805
       22916.680      0.99955321
       22916.720      0.99956781
       22916.760      0.99958187
       22916.800      0.99959540
       22916.840      0.99960841
       22916.880      0.99962091
       22916.920      0.99963292
       22916.960      0.99964445
       22917.000      0.99965551
       22917.040      0.99966612
       22917.080      0.99967628
       22917.120      0.99968600
       22917.160      0.99969531
       22917.200      0.99970421
       22917.240      0.99971272
       22917.280      0.99972085
       22917.320      0.99972861
       22917.360      0.99973600
       22917.400      0.99974306
       22917.440      0.99974978
       22917.480      0.99975619
       22917.520      0.99976228
       22917.560      0.99976809
       22917.600      0.99977360
       22917.640      0.99977885
       22917.680      0.99978385
       22917.720      0.99978859
       22917.760      0.99979311
       22917.800      0.99979740
       22917.840      0.99980149
       22917.880      0.99980538
       22917.920      0.99980909
       22917.960      0.99981263
       22918.000      0.99981601
       22918.040      0.99981924
       22918.080      0.99982234
       22918.120      0.99982532
       22918.160      0.99982819
       22918.200      0.99983097
       22918.240      0.99983366
       22918.280      0.99983629
       22918.320      0.99983885
       22918.360      0.99984137
       22918.400      0.99984385
       22918.440      0.99984631
       22918.480      0.99984877
       22918.520      0.99985122
       22918.560      0.99985370
       22918.600      0.99985619
       22918.640      0.99985872
       22918.680      0.99986129
       22918.720      0.99986390
       22918.760      0.99986655
       22918.800      0.99986924
       22918.840      0.99987197
       22918.880      0.99987473
       22918.920      0.99987752
       22918.960      0.99988034
       22919.000      0.99988319
       22919.040      0.99988606
       22919.080      0.99988895
       22919.120      0.99989186
       22919.160      0.99989479
       22919.200      0.99989772
       22919.240      0.99990067
       22919.280      0.99990363
       22919.320      0.99990659
       22919.360      0.99990955
       22919.400      0.99991252
       22919.440      0.99991548
       22919.480      0.99991843
       22919.520      0.99992138
       22919.560      0.99992432
       22919.600      0.99992724
       22919.640      0.99993014
       22919.680      0.99993303
       22919.720      0.99993590
       22919.760      0.99993874
       22919.800      0.99994155
       22919.840      0.99994434
       22919.880      0.99994709
       22919.920      0.99994980
       22919.960      0.99995248
       22920.000      0.99995512
       22920.040      0.99995772
       22920.080      0.99996027
       22920.120      0.99996278
       22920.160      0.99996523
       22920.200      0.99996763
       22920.240      0.99996997
       22920.280      0.99997225
       22920.320      0.99997448
       22920.360      0.99997663
       22920.400      0.99997873
       22920.440      0.99998075
       22920.480      0.99998270
       22920.520      0.99998457
       22920.560      0.99998637
       22920.600      0.99998809
       22920.640      0.99998972
       22920.680      0.99999127
       22920.720      0.99999273
       22920.760      0.99999410
       22920.800      0.99999538
       22920.840      0.99999656
       22920.880      0.99999764
       22920.920      0.99999863
       22920.960      0.99999950
       22921.000       1.0000003
       22921.040       1.0000009
       22921.080       1.0000015
       22921.120       1.0000019
       22921.160       1.0000022
       22921.200       1.0000024
       22921.240       1.0000025
       22921.280       1.0000025
       22921.320       1.0000023
       22921.360       1.0000020
       22921.400       1.0000015
       22921.440       1.0000010
       22921.480       1.0000003
       22921.520      0.99999943
       22921.560      0.99999848
       22921.600      0.99999740
       22921.640      0.99999621
       22921.680      0.99999490
       22921.720      0.99999347
       22921.760      0.99999194
       22921.800      0.99999029
       22921.840      0.99998855
       22921.880      0.99998670
       22921.920      0.99998475
       22921.960      0.99998271
       22922.000      0.99998057
       22922.040      0.99997835
       22922.080      0.99997604
       22922.120      0.99997365
       22922.160      0.99997118
       22922.200      0.99996863
       22922.240      0.99996601
       22922.280      0.99996332
       22922.320      0.99996056
       22922.360      0.99995773
       22922.400      0.99995485
       22922.440      0.99995190
       22922.480      0.99994890
       22922.520      0.99994585
       22922.560      0.99994275
       22922.600      0.99993960
       22922.640      0.99993641
       22922.680      0.99993318
       22922.720      0.99992991
       22922.760      0.99992661
       22922.800      0.99992328
       22922.840      0.99991992
       22922.880      0.99991653
       22922.920      0.99991313
       22922.960      0.99990970
       22923.000      0.99990626
       22923.040      0.99990281
       22923.080      0.99989934
       22923.120      0.99989587
       22923.160      0.99989240
       22923.200      0.99988893
       22923.240      0.99988546
       22923.280      0.99988200
       22923.320      0.99987854
       22923.360      0.99987510
       22923.400      0.99987167
       22923.440      0.99986826
       22923.480      0.99986487
       22923.520      0.99986151
       22923.560      0.99985817
       22923.600      0.99985486
       22923.640      0.99985159
       22923.680      0.99984835
       22923.720      0.99984515
       22923.760      0.99984200
       22923.800      0.99983889
       22923.840      0.99983583
       22923.880      0.99983282
       22923.920      0.99982987
       22923.960      0.99982697
       22924.000      0.99982414
       22924.040      0.99982137
       22924.080      0.99981866
       22924.120      0.99981603
       22924.160      0.99981346
