 #      wave           flux
       22900.000      0.99994575
       22900.040      0.99994748
       22900.080      0.99994794
       22900.120      0.99994771
       22900.160      0.99994716
       22900.200      0.99994645
       22900.240      0.99994571
       22900.280      0.99994497
       22900.320      0.99994426
       22900.360      0.99994358
       22900.400      0.99994294
       22900.440      0.99994234
       22900.480      0.99994177
       22900.520      0.99994122
       22900.560      0.99994066
       22900.600      0.99994005
       22900.640      0.99993935
       22900.680      0.99993851
       22900.720      0.99993749
       22900.760      0.99993624
       22900.800      0.99993471
       22900.840      0.99993286
       22900.880      0.99993066
       22900.920      0.99992806
       22900.960      0.99992507
       22901.000      0.99992171
       22901.040      0.99991804
       22901.080      0.99991414
       22901.120      0.99991004
       22901.160      0.99990568
       22901.200      0.99990079
       22901.240      0.99989467
       22901.280      0.99988600
       22901.320      0.99987252
       22901.360      0.99985002
       22901.400      0.99980984
       22901.440      0.99973336
       22901.480      0.99958180
       22901.520      0.99927951
       22901.560      0.99869418
       22901.600      0.99762528
       22901.640      0.99580706
       22901.680      0.99296812
       22901.720      0.98901563
       22901.760      0.98419604
       22901.800      0.97908705
       22901.840      0.97453952
       22901.880      0.97153253
       22901.920      0.97084954
       22901.960      0.97270978
       22902.000      0.97663758
       22902.040      0.98168948
       22902.080      0.98682665
       22902.120      0.99125664
       22902.160      0.99460444
       22902.200      0.99687060
       22902.240      0.99827154
       22902.280      0.99907177
       22902.320      0.99948926
       22902.360      0.99968336
       22902.400      0.99976443
       22902.440      0.99979932
       22902.480      0.99981887
       22902.520      0.99983234
       22902.560      0.99983995
       22902.600      0.99984057
       22902.640      0.99983377
       22902.680      0.99981577
       22902.720      0.99977154
       22902.760      0.99966449
       22902.800      0.99943073
       22902.840      0.99898047
       22902.880      0.99819715
       22902.920      0.99693921
       22902.960      0.99507843
       22903.000      0.99258388
       22903.040      0.98960699
       22903.080      0.98652647
       22903.120      0.98390066
       22903.160      0.98231136
       22903.200      0.98215221
       22903.240      0.98345031
       22903.280      0.98584905
       22903.320      0.98879838
       22903.360      0.99177010
       22903.400      0.99439446
       22903.440      0.99646681
       22903.480      0.99792423
       22903.520      0.99883504
       22903.560      0.99934632
       22903.600      0.99960916
       22903.640      0.99973940
       22903.680      0.99980720
       22903.720      0.99984642
       22903.760      0.99987039
       22903.800      0.99988415
       22903.840      0.99989031
       22903.880      0.99989099
       22903.920      0.99988825
       22903.960      0.99988402
       22904.000      0.99987990
       22904.040      0.99987681
       22904.080      0.99987496
       22904.120      0.99987405
       22904.160      0.99987351
       22904.200      0.99987270
       22904.240      0.99987110
       22904.280      0.99986847
       22904.320      0.99986501
       22904.360      0.99986135
       22904.400      0.99985832
       22904.440      0.99985677
       22904.480      0.99985738
       22904.520      0.99986032
       22904.560      0.99986487
       22904.600      0.99986920
       22904.640      0.99987062
       22904.680      0.99986625
       22904.720      0.99985362
       22904.760      0.99983119
       22904.800      0.99979860
       22904.840      0.99975522
       22904.880      0.99969285
       22904.920      0.99957916
       22904.960      0.99933475
       22905.000      0.99882132
       22905.040      0.99787057
       22905.080      0.99633812
       22905.120      0.99416192
       22905.160      0.99140497
       22905.200      0.98829473
       22905.240      0.98526983
       22905.280      0.98294453
       22905.320      0.98191312
       22905.360      0.98248853
       22905.400      0.98452145
       22905.440      0.98748806
       22905.480      0.99071944
       22905.520      0.99364731
       22905.560      0.99595153
       22905.600      0.99756624
       22905.640      0.99859127
       22905.680      0.99918185
       22905.720      0.99949027
       22905.760      0.99964062
       22905.800      0.99971413
       22905.840      0.99975305
       22905.880      0.99977594
       22905.920      0.99979001
       22905.960      0.99979817
       22906.000      0.99980195
       22906.040      0.99980252
       22906.080      0.99980099
       22906.120      0.99979844
       22906.160      0.99979573
       22906.200      0.99979343
       22906.240      0.99979172
       22906.280      0.99979057
       22906.320      0.99978982
       22906.360      0.99978927
       22906.400      0.99978871
       22906.440      0.99978795
       22906.480      0.99978689
       22906.520      0.99978549
       22906.560      0.99978374
       22906.600      0.99978165
       22906.640      0.99977926
       22906.680      0.99977658
       22906.720      0.99977366
       22906.760      0.99977052
       22906.800      0.99976719
       22906.840      0.99976372
       22906.880      0.99976012
       22906.920      0.99975643
       22906.960      0.99975268
       22907.000      0.99974887
       22907.040      0.99974500
       22907.080      0.99974108
       22907.120      0.99973708
       22907.160      0.99973300
       22907.200      0.99972881
       22907.240      0.99972450
       22907.280      0.99972006
       22907.320      0.99971546
       22907.360      0.99971069
       22907.400      0.99970574
       22907.440      0.99970058
       22907.480      0.99969522
       22907.520      0.99968963
       22907.560      0.99968382
       22907.600      0.99967779
       22907.640      0.99967157
       22907.680      0.99966516
       22907.720      0.99965859
       22907.760      0.99965187
       22907.800      0.99964503
       22907.840      0.99963808
       22907.880      0.99963104
       22907.920      0.99962393
       22907.960      0.99961676
       22908.000      0.99960955
       22908.040      0.99960230
       22908.080      0.99959499
       22908.120      0.99958758
       22908.160      0.99958001
       22908.200      0.99957222
       22908.240      0.99956411
       22908.280      0.99955560
       22908.320      0.99954661
       22908.360      0.99953705
       22908.400      0.99952683
       22908.440      0.99951589
       22908.480      0.99950413
       22908.520      0.99949150
       22908.560      0.99947799
       22908.600      0.99946365
       22908.640      0.99944866
       22908.680      0.99943333
       22908.720      0.99941808
       22908.760      0.99940335
       22908.800      0.99938952
       22908.840      0.99937676
       22908.880      0.99936487
       22908.920      0.99935303
       22908.960      0.99933979
       22909.000      0.99932326
       22909.040      0.99930144
       22909.080      0.99927244
       22909.120      0.99923450
       22909.160      0.99918533
       22909.200      0.99911913
       22909.240      0.99901836
       22909.280      0.99883928
       22909.320      0.99849702
       22909.360      0.99786112
       22909.400      0.99677351
       22909.440      0.99509897
       22909.480      0.99279793
       22909.520      0.98996111
       22909.560      0.98682961
       22909.600      0.98383014
       22909.640      0.98153859
       22909.680      0.98050212
       22909.720      0.98100102
       22909.760      0.98287910
       22909.800      0.98564813
       22909.840      0.98872511
       22909.880      0.99162570
       22909.920      0.99403083
       22909.960      0.99578918
       22910.000      0.99692103
       22910.040      0.99756594
       22910.080      0.99788721
       22910.120      0.99801724
       22910.160      0.99804273
       22910.200      0.99801170
       22910.240      0.99794776
       22910.280      0.99786188
       22910.320      0.99775926
       22910.360      0.99764264
       22910.400      0.99751358
       22910.440      0.99737292
       22910.480      0.99722063
       22910.520      0.99705573
       22910.560      0.99687649
       22910.600      0.99668066
       22910.640      0.99646574
       22910.680      0.99622893
       22910.720      0.99596709
       22910.760      0.99567660
       22910.800      0.99535327
       22910.840      0.99499229
       22910.880      0.99458815
       22910.920      0.99413454
       22910.960      0.99362420
       22911.000      0.99304856
       22911.040      0.99239730
       22911.080      0.99165798
       22911.120      0.99081558
       22911.160      0.98985304
       22911.200      0.98875377
       22911.240      0.98750487
       22911.280      0.98609921
       22911.320      0.98453535
       22911.360      0.98281779
       22911.400      0.98095950
       22911.440      0.97898824
       22911.480      0.97695749
       22911.520      0.97495598
       22911.560      0.97310126
       22911.600      0.97152437
       22911.640      0.97035471
       22911.680      0.96970337
       22911.720      0.96964028
       22911.760      0.97016915
       22911.800      0.97122465
       22911.840      0.97269311
       22911.880      0.97443736
       22911.920      0.97632165
       22911.960      0.97822885
       22912.000      0.98006837
       22912.040      0.98177917
       22912.080      0.98332560
       22912.120      0.98469161
       22912.160      0.98587457
       22912.200      0.98687967
       22912.240      0.98771608
       22912.280      0.98839467
       22912.320      0.98892640
       22912.360      0.98932094
       22912.400      0.98958578
       22912.440      0.98972563
       22912.480      0.98974236
       22912.520      0.98963547
       22912.560      0.98940261
       22912.600      0.98904031
       22912.640      0.98854453
       22912.680      0.98791109
       22912.720      0.98713733
       22912.760      0.98622757
       22912.800      0.98520070
       22912.840      0.98409262
       22912.880      0.98295308
       22912.920      0.98184404
       22912.960      0.98084078
       22913.000      0.98003007
       22913.040      0.97949941
       22913.080      0.97932112
       22913.120      0.97953203
       22913.160      0.98011705
       22913.200      0.98101731
       22913.240      0.98215075
       22913.280      0.98342972
       22913.320      0.98477505
       22913.360      0.98612464
       22913.400      0.98743159
       22913.440      0.98866038
       22913.480      0.98978600
       22913.520      0.99079576
       22913.560      0.99168937
       22913.600      0.99247480
       22913.640      0.99316403
       22913.680      0.99376992
       22913.720      0.99430416
       22913.760      0.99477656
       22913.800      0.99519543
       22913.840      0.99556798
       22913.880      0.99590031
       22913.920      0.99619735
       22913.960      0.99646300
       22914.000      0.99670059
       22914.040      0.99691311
       22914.080      0.99710340
       22914.120      0.99727420
       22914.160      0.99742817
       22914.200      0.99756783
       22914.240      0.99769542
       22914.280      0.99781277
       22914.320      0.99792119
       22914.360      0.99802163
       22914.400      0.99811482
       22914.440      0.99820140
       22914.480      0.99828193
       22914.520      0.99835698
       22914.560      0.99842707
       22914.600      0.99849269
       22914.640      0.99855426
       22914.680      0.99861213
       22914.720      0.99866654
       22914.760      0.99871771
       22914.800      0.99876580
       22914.840      0.99881098
       22914.880      0.99885339
       22914.920      0.99889319
       22914.960      0.99893052
       22915.000      0.99896554
       22915.040      0.99899840
       22915.080      0.99902924
       22915.120      0.99905822
       22915.160      0.99908549
       22915.200      0.99911119
       22915.240      0.99913547
       22915.280      0.99915848
       22915.320      0.99918036
       22915.360      0.99920124
       22915.400      0.99922123
       22915.440      0.99924041
       22915.480      0.99925885
       22915.520      0.99927657
       22915.560      0.99929361
       22915.600      0.99930999
       22915.640      0.99932573
       22915.680      0.99934084
       22915.720      0.99935535
       22915.760      0.99936929
       22915.800      0.99938265
       22915.840      0.99939548
       22915.880      0.99940778
       22915.920      0.99941958
       22915.960      0.99943089
       22916.000      0.99944174
       22916.040      0.99945215
       22916.080      0.99946212
       22916.120      0.99947169
       22916.160      0.99948087
       22916.200      0.99948967
       22916.240      0.99949812
       22916.280      0.99950621
       22916.320      0.99951397
       22916.360      0.99952140
       22916.400      0.99952851
       22916.440      0.99953533
       22916.480      0.99954185
       22916.520      0.99954810
       22916.560      0.99955408
       22916.600      0.99955980
       22916.640      0.99956527
       22916.680      0.99957052
       22916.720      0.99957554
       22916.760      0.99958035
       22916.800      0.99958496
       22916.840      0.99958938
       22916.880      0.99959362
       22916.920      0.99959769
       22916.960      0.99960159
       22917.000      0.99960532
       22917.040      0.99960888
       22917.080      0.99961227
       22917.120      0.99961549
       22917.160      0.99961852
       22917.200      0.99962138
       22917.240      0.99962404
       22917.280      0.99962651
       22917.320      0.99962879
       22917.360      0.99963087
       22917.400      0.99963274
       22917.440      0.99963440
       22917.480      0.99963586
       22917.520      0.99963709
       22917.560      0.99963810
       22917.600      0.99963889
       22917.640      0.99963944
       22917.680      0.99963973
       22917.720      0.99963975
       22917.760      0.99963946
       22917.800      0.99963883
       22917.840      0.99963779
       22917.880      0.99963632
       22917.920      0.99963436
       22917.960      0.99963186
       22918.000      0.99962875
       22918.040      0.99962496
       22918.080      0.99962038
       22918.120      0.99961486
       22918.160      0.99960822
       22918.200      0.99960024
       22918.240      0.99959071
       22918.280      0.99957939
       22918.320      0.99956605
       22918.360      0.99955042
       22918.400      0.99953221
       22918.440      0.99951101
       22918.480      0.99948630
       22918.520      0.99945730
       22918.560      0.99942296
       22918.600      0.99938176
       22918.640      0.99933138
       22918.680      0.99926818
       22918.720      0.99918701
       22918.760      0.99908110
       22918.800      0.99894160
       22918.840      0.99875645
       22918.880      0.99850928
       22918.920      0.99818044
       22918.960      0.99775047
       22919.000      0.99720638
       22919.040      0.99655175
       22919.080      0.99581512
       22919.120      0.99504802
       22919.160      0.99431748
       22919.200      0.99369256
       22919.240      0.99322515
       22919.280      0.99293945
       22919.320      0.99284139
       22919.360      0.99293109
       22919.400      0.99320832
       22919.440      0.99366768
       22919.480      0.99428642
       22919.520      0.99501441
       22919.560      0.99578329
       22919.600      0.99652499
       22919.640      0.99718611
       22919.680      0.99773707
       22919.720      0.99817390
       22919.760      0.99850908
       22919.800      0.99876177
       22919.840      0.99895157
       22919.880      0.99909481
       22919.920      0.99920373
       22919.960      0.99928754
       22920.000      0.99935319
       22920.040      0.99940563
       22920.080      0.99944792
       22920.120      0.99948189
       22920.160      0.99950881
       22920.200      0.99952993
       22920.240      0.99954679
       22920.280      0.99956094
       22920.320      0.99957313
       22920.360      0.99958179
       22920.400      0.99958054
       22920.440      0.99955510
       22920.480      0.99948010
       22920.520      0.99931307
       22920.560      0.99898259
       22920.600      0.99837339
       22920.640      0.99732734
       22920.680      0.99567897
       22920.720      0.99333036
       22920.760      0.99035986
       22920.800      0.98710420
       22920.840      0.98414292
       22920.880      0.98214377
       22920.920      0.98161676
       22920.960      0.98270400
       22921.000      0.98511864
       22921.040      0.98826623
       22921.080      0.99148441
       22921.120      0.99426811
       22921.160      0.99637647
       22921.200      0.99780576
       22921.240      0.99868889
       22921.280      0.99919533
       22921.320      0.99946773
       22921.360      0.99960322
       22921.400      0.99966354
       22921.440      0.99968737
       22921.480      0.99969696
       22921.520      0.99970210
       22921.560      0.99970508
       22921.600      0.99970516
       22921.640      0.99970162
       22921.680      0.99969547
       22921.720      0.99968842
       22921.760      0.99967965
       22921.800      0.99966049
       22921.840      0.99960719
       22921.880      0.99947413
       22921.920      0.99918700
       22921.960      0.99862902
       22922.000      0.99762095
       22922.040      0.99591913
       22922.080      0.99327707
       22922.120      0.98957340
       22922.160      0.98497123
       22922.200      0.98002965
       22922.240      0.97565058
       22922.280      0.97282028
       22922.320      0.97225218
       22922.360      0.97408185
       22922.400      0.97778457
       22922.440      0.98246005
       22922.480      0.98720587
       22922.520      0.99137395
       22922.560      0.99461241
       22922.600      0.99683689
       22922.640      0.99819465
       22922.680      0.99894766
       22922.720      0.99933812
       22922.760      0.99953515
       22922.800      0.99963686
       22922.840      0.99969259
       22922.880      0.99972489
       22922.920      0.99974412
       22922.960      0.99975536
       22923.000      0.99976143
       22923.040      0.99976432
       22923.080      0.99976564
       22923.120      0.99976663
       22923.160      0.99976798
       22923.200      0.99976992
       22923.240      0.99977239
       22923.280      0.99977521
       22923.320      0.99977815
       22923.360      0.99978099
       22923.400      0.99978356
       22923.440      0.99978577
       22923.480      0.99978762
       22923.520      0.99978911
       22923.560      0.99979027
       22923.600      0.99979113
       22923.640      0.99979173
       22923.680      0.99979211
       22923.720      0.99979231
       22923.760      0.99979237
       22923.800      0.99979234
       22923.840      0.99979223
       22923.880      0.99979209
       22923.920      0.99979195
       22923.960      0.99979180
       22924.000      0.99979165
       22924.040      0.99979151
       22924.080      0.99979136
       22924.120      0.99979122
       22924.160      0.99979107
