 #      wave           flux
       14900.000      0.99987383
       14900.030      0.99987168
       14900.060      0.99986857
       14900.090      0.99986496
       14900.120      0.99986108
       14900.150      0.99985706
       14900.180      0.99985290
       14900.210      0.99984861
       14900.240      0.99984418
       14900.270      0.99983958
       14900.300      0.99983479
       14900.330      0.99982978
       14900.360      0.99982453
       14900.390      0.99981898
       14900.420      0.99981306
       14900.450      0.99980668
       14900.480      0.99979973
       14900.510      0.99979210
       14900.540      0.99978368
       14900.570      0.99977435
       14900.600      0.99976400
       14900.630      0.99975252
       14900.660      0.99973978
       14900.690      0.99972567
       14900.720      0.99971006
       14900.750      0.99969282
       14900.780      0.99967377
       14900.810      0.99965271
       14900.840      0.99962940
       14900.870      0.99960353
       14900.900      0.99957461
       14900.930      0.99954180
       14900.960      0.99950366
       14900.990      0.99945798
       14901.020      0.99940205
       14901.050      0.99933279
       14901.080      0.99924679
       14901.110      0.99913986
       14901.140      0.99900617
       14901.170      0.99883653
       14901.200      0.99861553
       14901.230      0.99831694
       14901.260      0.99790052
       14901.290      0.99731718
       14901.320      0.99651881
       14901.350      0.99547599
       14901.380      0.99421584
       14901.410      0.99288119
       14901.440      0.99176608
       14901.470      0.99121206
       14901.500      0.99142014
       14901.530      0.99229944
       14901.560      0.99354904
       14901.590      0.99485571
       14901.620      0.99600663
       14901.650      0.99690612
       14901.680      0.99756153
       14901.710      0.99802931
       14901.740      0.99836532
       14901.770      0.99860969
       14901.800      0.99878903
       14901.830      0.99892089
       14901.860      0.99901786
       14901.890      0.99908969
       14901.920      0.99914381
       14901.950      0.99918513
       14901.980      0.99921664
       14902.010      0.99924026
       14902.040      0.99925732
       14902.070      0.99926865
       14902.100      0.99927467
       14902.130      0.99927558
       14902.160      0.99927143
       14902.190      0.99926224
       14902.220      0.99924802
       14902.250      0.99922878
       14902.280      0.99920462
       14902.310      0.99917574
       14902.340      0.99914265
       14902.370      0.99910619
       14902.400      0.99906747
       14902.430      0.99902778
       14902.460      0.99898842
       14902.490      0.99895079
       14902.520      0.99891628
       14902.550      0.99888640
       14902.580      0.99886275
       14902.610      0.99884719
       14902.640      0.99884185
       14902.670      0.99884751
       14902.700      0.99886319
       14902.730      0.99888832
       14902.760      0.99892135
       14902.790      0.99895947
       14902.820      0.99900057
       14902.850      0.99904339
       14902.880      0.99908700
       14902.910      0.99913055
       14902.940      0.99917303
       14902.970      0.99921306
       14903.000      0.99924902
       14903.030      0.99927930
       14903.060      0.99930269
       14903.090      0.99931836
       14903.120      0.99932442
       14903.150      0.99931161
       14903.180      0.99924834
       14903.210      0.99906526
       14903.240      0.99866683
       14903.270      0.99797360
       14903.300      0.99697261
       14903.330      0.99576271
       14903.360      0.99460112
       14903.390      0.99387244
       14903.420      0.99388361
       14903.450      0.99463423
       14903.480      0.99581880
       14903.510      0.99705791
       14903.540      0.99809158
       14903.570      0.99880910
       14903.600      0.99922476
       14903.630      0.99943023
       14903.660      0.99952576
       14903.690      0.99957342
       14903.720      0.99960010
       14903.750      0.99961563
       14903.780      0.99962411
       14903.810      0.99962810
       14903.840      0.99962965
       14903.870      0.99963032
       14903.900      0.99963068
       14903.930      0.99963037
       14903.960      0.99962852
       14903.990      0.99962427
       14904.020      0.99961725
       14904.050      0.99960810
       14904.080      0.99959831
       14904.110      0.99958955
       14904.140      0.99958261
       14904.170      0.99957608
       14904.200      0.99956465
       14904.230      0.99953947
       14904.260      0.99948995
       14904.290      0.99940356
       14904.320      0.99925858
       14904.350      0.99899627
       14904.380      0.99843738
       14904.410      0.99712091
       14904.440      0.99413705
       14904.470      0.98809666
       14904.500      0.97738052
       14904.530      0.96162668
       14904.560      0.94423165
       14904.590      0.93241242
       14904.620      0.93241011
       14904.650      0.94422473
       14904.680      0.96161559
       14904.710      0.97736407
       14904.740      0.98806793
       14904.770      0.99409209
       14904.800      0.99708988
       14904.830      0.99844111
       14904.860      0.99900545
       14904.890      0.99924941
       14904.920      0.99937745
       14904.950      0.99945975
       14904.980      0.99951575
       14905.010      0.99955194
       14905.040      0.99957300
       14905.070      0.99958386
       14905.100      0.99958937
       14905.130      0.99959332
       14905.160      0.99959764
       14905.190      0.99960279
       14905.220      0.99960846
       14905.250      0.99961404
       14905.280      0.99961892
       14905.310      0.99962268
       14905.340      0.99962517
       14905.370      0.99962640
       14905.400      0.99962645
       14905.430      0.99962545
       14905.460      0.99962353
       14905.490      0.99962083
       14905.520      0.99961748
       14905.550      0.99961363
       14905.580      0.99960939
       14905.610      0.99960487
       14905.640      0.99960014
       14905.670      0.99959522
       14905.700      0.99959012
       14905.730      0.99958482
       14905.760      0.99957931
       14905.790      0.99957356
       14905.820      0.99956755
       14905.850      0.99956127
       14905.880      0.99955470
       14905.910      0.99954781
       14905.940      0.99954059
       14905.970      0.99953300
       14906.000      0.99952505
       14906.030      0.99951669
       14906.060      0.99950792
       14906.090      0.99949871
       14906.120      0.99948905
       14906.150      0.99947890
       14906.180      0.99946826
       14906.210      0.99945709
       14906.240      0.99944538
       14906.270      0.99943310
       14906.300      0.99942019
       14906.330      0.99940659
       14906.360      0.99939225
       14906.390      0.99937709
       14906.420      0.99936103
       14906.450      0.99934401
       14906.480      0.99932593
       14906.510      0.99930675
       14906.540      0.99928637
       14906.570      0.99926477
       14906.600      0.99924193
       14906.630      0.99921789
       14906.660      0.99919279
       14906.690      0.99916677
       14906.720      0.99913995
       14906.750      0.99911230
       14906.780      0.99908348
       14906.810      0.99905268
       14906.840      0.99901872
       14906.870      0.99898038
       14906.900      0.99893673
       14906.930      0.99888732
       14906.960      0.99883171
       14906.990      0.99876617
       14907.020      0.99867469
       14907.050      0.99851812
       14907.080      0.99823593
       14907.110      0.99776709
       14907.140      0.99707826
       14907.170      0.99619629
       14907.200      0.99524978
       14907.230      0.99448481
       14907.260      0.99415753
       14907.290      0.99436089
       14907.320      0.99493296
       14907.350      0.99557286
       14907.380      0.99599678
       14907.410      0.99602007
       14907.440      0.99559222
       14907.470      0.99480992
       14907.500      0.99388375
       14907.530      0.99309060
       14907.560      0.99267225
       14907.590      0.99269450
       14907.620      0.99299097
       14907.650      0.99326680
       14907.680      0.99321321
       14907.710      0.99252859
       14907.740      0.99077867
       14907.770      0.98718631
       14907.800      0.98049037
       14907.830      0.96931240
       14907.860      0.95363184
       14907.890      0.93671155
       14907.920      0.92426099
       14907.950      0.91938590
       14907.980      0.91782686
       14908.010      0.90828645
       14908.040      0.87768426
       14908.070      0.81828295
       14908.100      0.73421059
       14908.130      0.64106765
       14908.160      0.55548216
       14908.190      0.48710861
       14908.220      0.43895492
       14908.250      0.41074945
       14908.280      0.40149995
       14908.310      0.41076187
       14908.340      0.43900498
       14908.370      0.48728353
       14908.400      0.55603764
       14908.430      0.64264599
       14908.460      0.73821019
       14908.490      0.82729314
       14908.520      0.89557819
       14908.550      0.93925526
       14908.580      0.96366538
       14908.610      0.97622350
       14908.640      0.98253739
       14908.670      0.98593337
       14908.700      0.98809296
       14908.730      0.98971779
       14908.760      0.99103196
       14908.790      0.99208706
       14908.820      0.99290477
       14908.850      0.99351407
       14908.880      0.99395245
       14908.910      0.99425988
       14908.940      0.99447130
       14908.970      0.99460960
       14909.000      0.99468539
       14909.030      0.99470187
       14909.060      0.99465827
       14909.090      0.99455026
       14909.120      0.99436816
       14909.150      0.99409496
       14909.180      0.99370780
       14909.210      0.99318082
       14909.240      0.99249090
       14909.270      0.99162938
       14909.300      0.99061077
       14909.330      0.98944533
       14909.360      0.98804115
       14909.390      0.98602862
       14909.420      0.98249647
       14909.450      0.97555528
       14909.480      0.96166194
       14909.510      0.93497017
       14909.540      0.88806595
       14909.570      0.81643259
       14909.600      0.72547410
       14909.630      0.63030692
       14909.660      0.54573799
       14909.690      0.47967342
       14909.720      0.43413157
       14909.750      0.40848054
       14909.780      0.40169844
       14909.810      0.41343983
       14909.840      0.44428407
       14909.870      0.49529802
       14909.900      0.56669344
       14909.930      0.65521292
       14909.960      0.75098610
       14909.990      0.83813417
       14910.020      0.90336977
       14910.050      0.94442235
       14910.080      0.96727645
       14910.110      0.97917783
       14910.140      0.98531859
       14910.170      0.98866181
       14910.200      0.99068566
       14910.230      0.99206195
       14910.260      0.99308510
       14910.290      0.99388957
       14910.320      0.99453912
       14910.350      0.99506258
       14910.380      0.99546999
       14910.410      0.99575874
       14910.440      0.99592110
       14910.470      0.99596078
       14910.500      0.99591382
       14910.530      0.99585817
       14910.560      0.99588641
       14910.590      0.99606203
       14910.620      0.99638292
       14910.650      0.99679135
       14910.680      0.99721369
       14910.710      0.99759506
       14910.740      0.99790943
       14910.770      0.99815093
       14910.800      0.99832584
       14910.830      0.99844707
       14910.860      0.99852961
       14910.890      0.99858735
       14910.920      0.99863154
       14910.950      0.99867074
       14910.980      0.99871037
       14911.010      0.99875249
       14911.040      0.99879694
       14911.070      0.99884243
       14911.100      0.99888732
       14911.130      0.99892996
       14911.160      0.99896915
       14911.190      0.99900434
       14911.220      0.99903556
       14911.250      0.99906316
       14911.280      0.99908763
       14911.310      0.99910949
       14911.340      0.99912923
       14911.370      0.99914725
       14911.400      0.99916388
       14911.430      0.99917937
       14911.460      0.99919387
       14911.490      0.99920741
       14911.520      0.99921977
       14911.550      0.99923019
       14911.580      0.99923732
       14911.610      0.99923944
       14911.640      0.99923473
       14911.670      0.99922153
       14911.700      0.99919835
       14911.730      0.99916343
       14911.760      0.99911127
       14911.790      0.99902069
       14911.820      0.99882555
       14911.850      0.99835678
       14911.880      0.99724795
       14911.910      0.99477760
       14911.940      0.98968467
       14911.970      0.98030998
       14912.000      0.96578350
       14912.030      0.94843195
       14912.060      0.93477695
       14912.090      0.93178040
       14912.120      0.94112680
       14912.150      0.95774776
       14912.180      0.97417691
       14912.210      0.98599646
       14912.240      0.99289862
       14912.270      0.99641218
       14912.300      0.99804957
       14912.330      0.99877458
       14912.360      0.99909122
       14912.390      0.99923742
       14912.420      0.99931741
       14912.450      0.99937166
       14912.480      0.99941379
       14912.510      0.99944782
       14912.540      0.99947506
       14912.570      0.99949642
       14912.600      0.99951286
       14912.630      0.99952541
       14912.660      0.99953511
       14912.690      0.99954288
       14912.720      0.99954944
       14912.750      0.99955514
       14912.780      0.99956010
       14912.810      0.99956432
       14912.840      0.99956770
       14912.870      0.99957016
       14912.900      0.99957160
       14912.930      0.99957193
       14912.960      0.99957108
       14912.990      0.99956900
       14913.020      0.99956561
       14913.050      0.99956083
       14913.080      0.99955452
       14913.110      0.99954639
       14913.140      0.99953595
       14913.170      0.99952249
       14913.200      0.99950511
       14913.230      0.99948284
       14913.260      0.99945451
       14913.290      0.99941869
       14913.320      0.99937324
       14913.350      0.99931466
       14913.380      0.99923729
       14913.410      0.99913169
       14913.440      0.99898169
       14913.470      0.99876145
       14913.500      0.99843324
       14913.530      0.99794386
       14913.560      0.99722819
       14913.590      0.99624080
       14913.620      0.99502024
       14913.650      0.99376668
       14913.680      0.99282199
       14913.710      0.99252152
       14913.740      0.99298765
       14913.770      0.99402154
       14913.800      0.99527224
       14913.830      0.99644928
       14913.860      0.99739441
       14913.890      0.99806974
       14913.920      0.99852175
       14913.950      0.99882286
       14913.980      0.99902883
       14914.010      0.99917367
       14914.040      0.99927738
       14914.070      0.99935229
       14914.100      0.99940699
       14914.130      0.99944808
       14914.160      0.99948038
       14914.190      0.99950677
       14914.220      0.99952864
       14914.250      0.99954662
       14914.280      0.99956105
       14914.310      0.99957228
       14914.340      0.99958071
       14914.370      0.99958684
       14914.400      0.99959113
       14914.430      0.99959388
       14914.460      0.99959509
       14914.490      0.99959442
       14914.520      0.99959110
       14914.550      0.99958366
       14914.580      0.99956891
       14914.610      0.99953971
       14914.640      0.99948084
       14914.670      0.99936331
       14914.700      0.99914331
       14914.730      0.99877053
       14914.760      0.99820291
       14914.790      0.99743427
       14914.820      0.99652802
       14914.850      0.99562471
       14914.880      0.99492254
       14914.910      0.99462770
       14914.940      0.99485370
       14914.970      0.99553442
       14915.000      0.99644325
       14915.030      0.99732523
       14915.060      0.99800288
       14915.090      0.99840156
       14915.120      0.99854175
       14915.150      0.99848415
       14915.180      0.99826758
       14915.210      0.99788758
       14915.240      0.99729669
       14915.270      0.99639566
       14915.300      0.99502819
       14915.330      0.99302925
       14915.360      0.99036888
       14915.390      0.98732170
       14915.420      0.98449877
       14915.450      0.98276229
       14915.480      0.98281322
       14915.510      0.98464878
       14915.540      0.98754962
       14915.570      0.99060184
       14915.600      0.99318608
       14915.630      0.99509104
       14915.660      0.99635959
       14915.690      0.99710477
       14915.720      0.99740320
       14915.750      0.99727273
       14915.780      0.99671440
       14915.810      0.99580243
       14915.840      0.99477636
       14915.870      0.99400161
       14915.900      0.99382132
       14915.930      0.99435657
       14915.960      0.99541100
       14915.990      0.99663802
       14916.020      0.99774069
       14916.050      0.99855239
       14916.080      0.99905311
       14916.110      0.99932495
       14916.140      0.99946647
       14916.170      0.99954243
       14916.200      0.99958654
       14916.230      0.99961455
       14916.260      0.99963347
       14916.290      0.99964677
       14916.320      0.99965673
       14916.350      0.99966547
       14916.380      0.99967517
       14916.410      0.99968779
       14916.440      0.99970466
       14916.470      0.99972569
       14916.500      0.99974880
       14916.530      0.99977048
       14916.560      0.99978684
       14916.590      0.99979469
       14916.620      0.99979242
       14916.650      0.99978010
       14916.680      0.99975801
       14916.710      0.99972451
       14916.740      0.99967327
       14916.770      0.99959113
       14916.800      0.99946082
       14916.830      0.99926751
       14916.860      0.99900804
       14916.890      0.99870231
       14916.920      0.99839725
       14916.950      0.99815385
       14916.980      0.99802955
       14917.010      0.99805851
       14917.040      0.99823327
       14917.070      0.99850895
       14917.100      0.99882376
       14917.130      0.99911900
       14917.160      0.99935677
       14917.190      0.99952743
       14917.220      0.99964010
       14917.250      0.99971139
       14917.280      0.99975705
       14917.310      0.99978674
       14917.340      0.99980429
       14917.370      0.99981051
       14917.400      0.99980562
       14917.430      0.99979097
       14917.460      0.99976957
       14917.490      0.99974526
       14917.520      0.99972160
       14917.550      0.99970076
       14917.580      0.99968261
       14917.610      0.99966525
       14917.640      0.99964569
       14917.670      0.99961996
       14917.700      0.99958247
       14917.730      0.99952347
       14917.760      0.99942091
       14917.790      0.99921827
       14917.820      0.99877279
       14917.850      0.99775804
       14917.880      0.99551692
       14917.910      0.99091708
       14917.940      0.98249836
       14917.970      0.96954609
       14918.000      0.95421232
       14918.030      0.94233923
       14918.060      0.94005211
       14918.090      0.94864797
       14918.120      0.96343636
