 #      wave           flux
       22900.000      0.99991118
       22900.040      0.99991292
       22900.080      0.99991340
       22900.120      0.99991319
       22900.160      0.99991265
       22900.200      0.99991194
       22900.240      0.99991117
       22900.280      0.99991038
       22900.320      0.99990957
       22900.360      0.99990876
       22900.400      0.99990795
       22900.440      0.99990714
       22900.480      0.99990633
       22900.520      0.99990551
       22900.560      0.99990469
       22900.600      0.99990387
       22900.640      0.99990305
       22900.680      0.99990222
       22900.720      0.99990140
       22900.760      0.99990057
       22900.800      0.99989973
       22900.840      0.99989889
       22900.880      0.99989805
       22900.920      0.99989721
       22900.960      0.99989636
       22901.000      0.99989551
       22901.040      0.99989466
       22901.080      0.99989380
       22901.120      0.99989293
       22901.160      0.99989206
       22901.200      0.99989119
       22901.240      0.99989031
       22901.280      0.99988943
       22901.320      0.99988854
       22901.360      0.99988765
       22901.400      0.99988675
       22901.440      0.99988584
       22901.480      0.99988493
       22901.520      0.99988402
       22901.560      0.99988310
       22901.600      0.99988217
       22901.640      0.99988123
       22901.680      0.99988029
       22901.720      0.99987934
       22901.760      0.99987839
       22901.800      0.99987743
       22901.840      0.99987646
       22901.880      0.99987548
       22901.920      0.99987450
       22901.960      0.99987350
       22902.000      0.99987250
       22902.040      0.99987150
       22902.080      0.99987048
       22902.120      0.99986946
       22902.160      0.99986842
       22902.200      0.99986738
       22902.240      0.99986633
       22902.280      0.99986527
       22902.320      0.99986421
       22902.360      0.99986313
       22902.400      0.99986204
       22902.440      0.99986095
       22902.480      0.99985984
       22902.520      0.99985872
       22902.560      0.99985760
       22902.600      0.99985646
       22902.640      0.99985531
       22902.680      0.99985416
       22902.720      0.99985299
       22902.760      0.99985181
       22902.800      0.99985062
       22902.840      0.99984942
       22902.880      0.99984820
       22902.920      0.99984698
       22902.960      0.99984574
       22903.000      0.99984449
       22903.040      0.99984323
       22903.080      0.99984196
       22903.120      0.99984067
       22903.160      0.99983936
       22903.200      0.99983804
       22903.240      0.99983670
       22903.280      0.99983535
       22903.320      0.99983397
       22903.360      0.99983258
       22903.400      0.99983117
       22903.440      0.99982974
       22903.480      0.99982828
       22903.520      0.99982681
       22903.560      0.99982531
       22903.600      0.99982379
       22903.640      0.99982225
       22903.680      0.99982068
       22903.720      0.99981909
       22903.760      0.99981747
       22903.800      0.99981583
       22903.840      0.99981415
       22903.880      0.99981245
       22903.920      0.99981072
       22903.960      0.99980897
       22904.000      0.99980718
       22904.040      0.99980536
       22904.080      0.99980351
       22904.120      0.99980162
       22904.160      0.99979971
       22904.200      0.99979776
       22904.240      0.99979577
       22904.280      0.99979375
       22904.320      0.99979170
       22904.360      0.99978961
       22904.400      0.99978748
       22904.440      0.99978531
       22904.480      0.99978310
       22904.520      0.99978086
       22904.560      0.99977857
       22904.600      0.99977625
       22904.640      0.99977388
       22904.680      0.99977147
       22904.720      0.99976902
       22904.760      0.99976652
       22904.800      0.99976398
       22904.840      0.99976140
       22904.880      0.99975876
       22904.920      0.99975609
       22904.960      0.99975336
       22905.000      0.99975059
       22905.040      0.99974777
       22905.080      0.99974490
       22905.120      0.99974197
       22905.160      0.99973900
       22905.200      0.99973598
       22905.240      0.99973290
       22905.280      0.99972977
       22905.320      0.99972659
       22905.360      0.99972336
       22905.400      0.99972006
       22905.440      0.99971672
       22905.480      0.99971331
       22905.520      0.99970985
       22905.560      0.99970633
       22905.600      0.99970275
       22905.640      0.99969912
       22905.680      0.99969542
       22905.720      0.99969166
       22905.760      0.99968784
       22905.800      0.99968396
       22905.840      0.99968002
       22905.880      0.99967601
       22905.920      0.99967193
       22905.960      0.99966778
       22906.000      0.99966356
       22906.040      0.99965927
       22906.080      0.99965490
       22906.120      0.99965044
       22906.160      0.99964591
       22906.200      0.99964128
       22906.240      0.99963657
       22906.280      0.99963176
       22906.320      0.99962686
       22906.360      0.99962186
       22906.400      0.99961676
       22906.440      0.99961155
       22906.480      0.99960623
       22906.520      0.99960081
       22906.560      0.99959527
       22906.600      0.99958961
       22906.640      0.99958384
       22906.680      0.99957794
       22906.720      0.99957191
       22906.760      0.99956576
       22906.800      0.99955948
       22906.840      0.99955306
       22906.880      0.99954650
       22906.920      0.99953980
       22906.960      0.99953296
       22907.000      0.99952598
       22907.040      0.99951884
       22907.080      0.99951155
       22907.120      0.99950411
       22907.160      0.99949651
       22907.200      0.99948874
       22907.240      0.99948081
       22907.280      0.99947272
       22907.320      0.99946444
       22907.360      0.99945599
       22907.400      0.99944734
       22907.440      0.99943850
       22907.480      0.99942944
       22907.520      0.99942016
       22907.560      0.99941064
       22907.600      0.99940086
       22907.640      0.99939083
       22907.680      0.99938052
       22907.720      0.99936993
       22907.760      0.99935903
       22907.800      0.99934782
       22907.840      0.99933629
       22907.880      0.99932442
       22907.920      0.99931220
       22907.960      0.99929962
       22908.000      0.99928666
       22908.040      0.99927332
       22908.080      0.99925958
       22908.120      0.99924542
       22908.160      0.99923084
       22908.200      0.99921582
       22908.240      0.99920036
       22908.280      0.99918443
       22908.320      0.99916803
       22908.360      0.99915113
       22908.400      0.99913375
       22908.440      0.99911584
       22908.480      0.99909742
       22908.520      0.99907845
       22908.560      0.99905894
       22908.600      0.99903887
       22908.640      0.99901822
       22908.680      0.99899698
       22908.720      0.99897513
       22908.760      0.99895266
       22908.800      0.99892952
       22908.840      0.99890569
       22908.880      0.99888109
       22908.920      0.99885568
       22908.960      0.99882937
       22909.000      0.99880209
       22909.040      0.99877379
       22909.080      0.99874438
       22909.120      0.99871379
       22909.160      0.99868196
       22909.200      0.99864880
       22909.240      0.99861426
       22909.280      0.99857824
       22909.320      0.99854070
       22909.360      0.99850154
       22909.400      0.99846071
       22909.440      0.99841812
       22909.480      0.99837371
       22909.520      0.99832741
       22909.560      0.99827914
       22909.600      0.99822884
       22909.640      0.99817644
       22909.680      0.99812187
       22909.720      0.99806505
       22909.760      0.99800593
       22909.800      0.99794442
       22909.840      0.99788048
       22909.880      0.99781401
       22909.920      0.99774496
       22909.960      0.99767326
       22910.000      0.99759883
       22910.040      0.99752162
       22910.080      0.99744154
       22910.120      0.99735851
       22910.160      0.99727245
       22910.200      0.99718322
       22910.240      0.99709064
       22910.280      0.99699441
       22910.320      0.99689410
       22910.360      0.99678917
       22910.400      0.99667905
       22910.440      0.99656311
       22910.480      0.99644072
       22910.520      0.99631124
       22910.560      0.99617404
       22910.600      0.99602847
       22910.640      0.99587392
       22910.680      0.99570975
       22910.720      0.99553534
       22910.760      0.99535009
       22910.800      0.99515340
       22910.840      0.99494467
       22910.880      0.99472337
       22910.920      0.99448909
       22910.960      0.99424162
       22911.000      0.99398115
       22911.040      0.99370838
       22911.080      0.99342447
       22911.120      0.99313087
       22911.160      0.99282919
       22911.200      0.99252117
       22911.240      0.99220866
       22911.280      0.99189369
       22911.320      0.99157867
       22911.360      0.99126670
       22911.400      0.99096199
       22911.440      0.99066971
       22911.480      0.99039564
       22911.520      0.99014579
       22911.560      0.98992626
       22911.600      0.98974295
       22911.640      0.98960133
       22911.680      0.98950585
       22911.720      0.98945903
       22911.760      0.98946042
       22911.800      0.98950652
       22911.840      0.98959193
       22911.880      0.98971027
       22911.920      0.98985469
       22911.960      0.99001826
       22912.000      0.99019417
       22912.040      0.99037611
       22912.080      0.99055864
       22912.120      0.99073764
       22912.160      0.99091005
       22912.200      0.99107346
       22912.240      0.99122578
       22912.280      0.99136512
       22912.320      0.99148978
       22912.360      0.99159825
       22912.400      0.99168944
       22912.440      0.99176291
       22912.480      0.99181897
       22912.520      0.99185849
       22912.560      0.99188268
       22912.600      0.99189294
       22912.640      0.99189078
       22912.680      0.99187787
       22912.720      0.99185610
       22912.760      0.99182778
       22912.800      0.99179595
       22912.840      0.99176432
       22912.880      0.99173706
       22912.920      0.99171853
       22912.960      0.99171311
       22913.000      0.99172510
       22913.040      0.99175845
       22913.080      0.99181642
       22913.120      0.99190096
       22913.160      0.99201217
       22913.200      0.99214855
       22913.240      0.99230771
       22913.280      0.99248677
       22913.320      0.99268265
       22913.360      0.99289219
       22913.400      0.99311224
       22913.440      0.99333972
       22913.480      0.99357176
       22913.520      0.99380587
       22913.560      0.99404010
       22913.600      0.99427286
       22913.640      0.99450274
       22913.680      0.99472843
       22913.720      0.99494867
       22913.760      0.99516225
       22913.800      0.99536804
       22913.840      0.99556502
       22913.880      0.99575241
       22913.920      0.99592976
       22913.960      0.99609701
       22914.000      0.99625434
       22914.040      0.99640212
       22914.080      0.99654076
       22914.120      0.99667075
       22914.160      0.99679255
       22914.200      0.99690666
       22914.240      0.99701354
       22914.280      0.99711371
       22914.320      0.99720765
       22914.360      0.99729587
       22914.400      0.99737886
       22914.440      0.99745715
       22914.480      0.99753123
       22914.520      0.99760161
       22914.560      0.99766878
       22914.600      0.99773320
       22914.640      0.99779529
       22914.680      0.99785539
       22914.720      0.99791371
       22914.760      0.99797037
       22914.800      0.99802544
       22914.840      0.99807896
       22914.880      0.99813094
       22914.920      0.99818140
       22914.960      0.99823034
       22915.000      0.99827777
       22915.040      0.99832371
       22915.080      0.99836815
       22915.120      0.99841112
       22915.160      0.99845262
       22915.200      0.99849265
       22915.240      0.99853124
       22915.280      0.99856838
       22915.320      0.99860408
       22915.360      0.99863837
       22915.400      0.99867125
       22915.440      0.99870275
       22915.480      0.99873289
       22915.520      0.99876172
       22915.560      0.99878928
       22915.600      0.99881563
       22915.640      0.99884083
       22915.680      0.99886492
       22915.720      0.99888797
       22915.760      0.99891003
       22915.800      0.99893115
       22915.840      0.99895140
       22915.880      0.99897082
       22915.920      0.99898948
       22915.960      0.99900742
       22916.000      0.99902472
       22916.040      0.99904141
       22916.080      0.99905755
       22916.120      0.99907321
       22916.160      0.99908843
       22916.200      0.99910325
       22916.240      0.99911771
       22916.280      0.99913182
       22916.320      0.99914560
       22916.360      0.99915905
       22916.400      0.99917216
       22916.440      0.99918492
       22916.480      0.99919733
       22916.520      0.99920939
       22916.560      0.99922109
       22916.600      0.99923242
       22916.640      0.99924338
       22916.680      0.99925396
       22916.720      0.99926415
       22916.760      0.99927395
       22916.800      0.99928335
       22916.840      0.99929235
       22916.880      0.99930094
       22916.920      0.99930912
       22916.960      0.99931687
       22917.000      0.99932421
       22917.040      0.99933113
       22917.080      0.99933763
       22917.120      0.99934372
       22917.160      0.99934942
       22917.200      0.99935472
       22917.240      0.99935964
       22917.280      0.99936420
       22917.320      0.99936839
       22917.360      0.99937222
       22917.400      0.99937571
       22917.440      0.99937887
       22917.480      0.99938171
       22917.520      0.99938423
       22917.560      0.99938644
       22917.600      0.99938835
       22917.640      0.99938998
       22917.680      0.99939131
       22917.720      0.99939233
       22917.760      0.99939303
       22917.800      0.99939332
       22917.840      0.99939307
       22917.880      0.99939214
       22917.920      0.99939033
       22917.960      0.99938744
       22918.000      0.99938327
       22918.040      0.99937762
       22918.080      0.99937030
       22918.120      0.99936115
       22918.160      0.99935006
       22918.200      0.99933698
       22918.240      0.99932199
       22918.280      0.99930522
       22918.320      0.99928683
       22918.360      0.99926701
       22918.400      0.99924593
       22918.440      0.99922369
       22918.480      0.99920029
       22918.520      0.99917548
       22918.560      0.99914852
       22918.600      0.99911795
       22918.640      0.99908154
       22918.680      0.99903657
       22918.720      0.99898008
       22918.760      0.99890898
       22918.800      0.99882028
       22918.840      0.99871118
       22918.880      0.99857946
       22918.920      0.99842403
       22918.960      0.99824586
       22919.000      0.99804887
       22919.040      0.99783963
       22919.080      0.99762632
       22919.120      0.99741794
       22919.160      0.99722387
       22919.200      0.99705344
       22919.240      0.99691564
       22919.280      0.99681859
       22919.320      0.99676857
       22919.360      0.99676879
       22919.400      0.99681837
       22919.440      0.99691328
       22919.480      0.99704760
       22919.520      0.99721448
       22919.560      0.99740660
       22919.600      0.99761649
       22919.640      0.99783661
       22919.680      0.99805947
       22919.720      0.99827775
       22919.760      0.99848454
       22919.800      0.99867376
       22919.840      0.99884082
       22919.880      0.99898344
       22919.920      0.99910160
       22919.960      0.99919670
       22920.000      0.99927092
       22920.040      0.99932683
       22920.080      0.99936715
       22920.120      0.99939469
       22920.160      0.99941222
       22920.200      0.99942254
       22920.240      0.99942830
       22920.280      0.99943201
       22920.320      0.99943577
       22920.360      0.99944107
       22920.400      0.99944862
       22920.440      0.99945856
       22920.480      0.99947072
       22920.520      0.99948476
       22920.560      0.99950024
       22920.600      0.99951672
       22920.640      0.99953374
       22920.680      0.99955084
       22920.720      0.99956756
       22920.760      0.99958347
       22920.800      0.99959822
       22920.840      0.99961154
       22920.880      0.99962329
       22920.920      0.99963348
       22920.960      0.99964220
       22921.000      0.99964959
       22921.040      0.99965578
       22921.080      0.99966095
       22921.120      0.99966525
       22921.160      0.99966885
       22921.200      0.99967191
       22921.240      0.99967459
       22921.280      0.99967704
       22921.320      0.99967937
       22921.360      0.99968167
       22921.400      0.99968400
       22921.440      0.99968638
       22921.480      0.99968881
       22921.520      0.99969129
       22921.560      0.99969381
       22921.600      0.99969637
       22921.640      0.99969896
       22921.680      0.99970157
       22921.720      0.99970419
       22921.760      0.99970682
       22921.800      0.99970945
       22921.840      0.99971206
       22921.880      0.99971466
       22921.920      0.99971722
       22921.960      0.99971976
       22922.000      0.99972224
       22922.040      0.99972468
       22922.080      0.99972706
       22922.120      0.99972937
       22922.160      0.99973160
       22922.200      0.99973376
       22922.240      0.99973582
       22922.280      0.99973778
       22922.320      0.99973964
       22922.360      0.99974140
       22922.400      0.99974306
       22922.440      0.99974461
       22922.480      0.99974607
       22922.520      0.99974743
       22922.560      0.99974870
       22922.600      0.99974989
       22922.640      0.99975100
       22922.680      0.99975204
       22922.720      0.99975300
       22922.760      0.99975389
       22922.800      0.99975473
       22922.840      0.99975550
       22922.880      0.99975622
       22922.920      0.99975689
       22922.960      0.99975752
       22923.000      0.99975811
       22923.040      0.99975866
       22923.080      0.99975917
       22923.120      0.99975966
       22923.160      0.99976013
       22923.200      0.99976058
       22923.240      0.99976102
       22923.280      0.99976144
       22923.320      0.99976186
       22923.360      0.99976227
       22923.400      0.99976267
       22923.440      0.99976308
       22923.480      0.99976347
       22923.520      0.99976387
       22923.560      0.99976425
       22923.600      0.99976463
       22923.640      0.99976501
       22923.680      0.99976538
       22923.720      0.99976574
       22923.760      0.99976610
       22923.800      0.99976645
       22923.840      0.99976679
       22923.880      0.99976713
       22923.920      0.99976745
       22923.960      0.99976777
       22924.000      0.99976808
       22924.040      0.99976837
       22924.080      0.99976866
       22924.120      0.99976894
       22924.160      0.99976921
