 #      wave           flux
       22900.000      0.99997007
       22900.040      0.99997189
       22900.080      0.99997263
       22900.120      0.99997279
       22900.160      0.99997264
       22900.200      0.99997236
       22900.240      0.99997202
       22900.280      0.99997165
       22900.320      0.99997127
       22900.360      0.99997088
       22900.400      0.99997049
       22900.440      0.99997009
       22900.480      0.99996968
       22900.520      0.99996926
       22900.560      0.99996883
       22900.600      0.99996840
       22900.640      0.99996795
       22900.680      0.99996749
       22900.720      0.99996702
       22900.760      0.99996654
       22900.800      0.99996604
       22900.840      0.99996553
       22900.880      0.99996502
       22900.920      0.99996449
       22900.960      0.99996395
       22901.000      0.99996340
       22901.040      0.99996284
       22901.080      0.99996228
       22901.120      0.99996172
       22901.160      0.99996115
       22901.200      0.99996058
       22901.240      0.99996001
       22901.280      0.99995944
       22901.320      0.99995887
       22901.360      0.99995831
       22901.400      0.99995775
       22901.440      0.99995720
       22901.480      0.99995666
       22901.520      0.99995613
       22901.560      0.99995560
       22901.600      0.99995509
       22901.640      0.99995460
       22901.680      0.99995411
       22901.720      0.99995365
       22901.760      0.99995321
       22901.800      0.99995279
       22901.840      0.99995239
       22901.880      0.99995201
       22901.920      0.99995165
       22901.960      0.99995129
       22902.000      0.99995090
       22902.040      0.99995040
       22902.080      0.99994969
       22902.120      0.99994865
       22902.160      0.99994713
       22902.200      0.99994498
       22902.240      0.99994207
       22902.280      0.99993827
       22902.320      0.99993351
       22902.360      0.99992779
       22902.400      0.99992128
       22902.440      0.99991438
       22902.480      0.99990765
       22902.520      0.99990140
       22902.560      0.99989506
       22902.600      0.99988608
       22902.640      0.99986820
       22902.680      0.99982984
       22902.720      0.99975247
       22902.760      0.99960656
       22902.800      0.99934337
       22902.840      0.99888375
       22902.880      0.99811572
       22902.920      0.99691183
       22902.960      0.99516907
       22903.000      0.99287610
       22903.040      0.99018206
       22903.080      0.98742776
       22903.120      0.98509864
       22903.160      0.98368653
       22903.200      0.98352076
       22903.240      0.98464180
       22903.280      0.98678374
       22903.320      0.98947884
       22903.360      0.99222511
       22903.400      0.99463831
       22903.440      0.99652248
       22903.480      0.99785417
       22903.520      0.99871949
       22903.560      0.99924307
       22903.600      0.99954319
       22903.640      0.99971014
       22903.680      0.99980051
       22903.720      0.99984728
       22903.760      0.99987015
       22903.800      0.99988124
       22903.840      0.99988770
       22903.880      0.99989302
       22903.920      0.99989841
       22903.960      0.99990396
       22904.000      0.99990932
       22904.040      0.99991407
       22904.080      0.99991799
       22904.120      0.99992099
       22904.160      0.99992313
       22904.200      0.99992450
       22904.240      0.99992523
       22904.280      0.99992546
       22904.320      0.99992534
       22904.360      0.99992500
       22904.400      0.99992455
       22904.440      0.99992409
       22904.480      0.99992365
       22904.520      0.99992327
       22904.560      0.99992294
       22904.600      0.99992267
       22904.640      0.99992243
       22904.680      0.99992221
       22904.720      0.99992200
       22904.760      0.99992178
       22904.800      0.99992154
       22904.840      0.99992128
       22904.880      0.99992098
       22904.920      0.99992064
       22904.960      0.99992027
       22905.000      0.99991986
       22905.040      0.99991941
       22905.080      0.99991894
       22905.120      0.99991843
       22905.160      0.99991789
       22905.200      0.99991732
       22905.240      0.99991672
       22905.280      0.99991611
       22905.320      0.99991546
       22905.360      0.99991480
       22905.400      0.99991411
       22905.440      0.99991341
       22905.480      0.99991269
       22905.520      0.99991195
       22905.560      0.99991120
       22905.600      0.99991044
       22905.640      0.99990967
       22905.680      0.99990888
       22905.720      0.99990808
       22905.760      0.99990725
       22905.800      0.99990641
       22905.840      0.99990554
       22905.880      0.99990464
       22905.920      0.99990371
       22905.960      0.99990273
       22906.000      0.99990172
       22906.040      0.99990067
       22906.080      0.99989956
       22906.120      0.99989841
       22906.160      0.99989720
       22906.200      0.99989593
       22906.240      0.99989459
       22906.280      0.99989319
       22906.320      0.99989172
       22906.360      0.99989017
       22906.400      0.99988855
       22906.440      0.99988684
       22906.480      0.99988506
       22906.520      0.99988320
       22906.560      0.99988127
       22906.600      0.99987927
       22906.640      0.99987721
       22906.680      0.99987509
       22906.720      0.99987291
       22906.760      0.99987069
       22906.800      0.99986843
       22906.840      0.99986613
       22906.880      0.99986379
       22906.920      0.99986143
       22906.960      0.99985905
       22907.000      0.99985665
       22907.040      0.99985424
       22907.080      0.99985183
       22907.120      0.99984942
       22907.160      0.99984701
       22907.200      0.99984461
       22907.240      0.99984222
       22907.280      0.99983983
       22907.320      0.99983746
       22907.360      0.99983507
       22907.400      0.99983267
       22907.440      0.99983024
       22907.480      0.99982777
       22907.520      0.99982525
       22907.560      0.99982265
       22907.600      0.99981997
       22907.640      0.99981719
       22907.680      0.99981431
       22907.720      0.99981130
       22907.760      0.99980816
       22907.800      0.99980486
       22907.840      0.99980141
       22907.880      0.99979777
       22907.920      0.99979395
       22907.960      0.99978992
       22908.000      0.99978569
       22908.040      0.99978123
       22908.080      0.99977656
       22908.120      0.99977168
       22908.160      0.99976662
       22908.200      0.99976142
       22908.240      0.99975610
       22908.280      0.99975070
       22908.320      0.99974527
       22908.360      0.99973982
       22908.400      0.99973439
       22908.440      0.99972899
       22908.480      0.99972357
       22908.520      0.99971805
       22908.560      0.99971228
       22908.600      0.99970606
       22908.640      0.99969917
       22908.680      0.99969139
       22908.720      0.99968248
       22908.760      0.99967224
       22908.800      0.99966053
       22908.840      0.99964729
       22908.880      0.99963268
       22908.920      0.99961715
       22908.960      0.99960144
       22909.000      0.99958622
       22909.040      0.99957154
       22909.080      0.99955591
       22909.120      0.99953481
       22909.160      0.99949921
       22909.200      0.99943431
       22909.240      0.99931656
       22909.280      0.99910719
       22909.320      0.99874162
       22909.360      0.99812101
       22909.400      0.99711961
       22909.440      0.99561266
       22909.480      0.99353004
       22909.520      0.99093022
       22909.560      0.98806200
       22909.600      0.98536076
       22909.640      0.98335210
       22909.680      0.98248689
       22909.720      0.98296846
       22909.760      0.98465030
       22909.800      0.98712264
       22909.840      0.98989571
       22909.880      0.99255028
       22909.920      0.99479493
       22909.960      0.99647868
       22910.000      0.99760425
       22910.040      0.99828648
       22910.080      0.99866758
       22910.120      0.99886621
       22910.160      0.99896228
       22910.200      0.99900236
       22910.240      0.99901110
       22910.280      0.99900092
       22910.320      0.99897823
       22910.360      0.99894676
       22910.400      0.99890902
       22910.440      0.99886686
       22910.480      0.99882161
       22910.520      0.99877408
       22910.560      0.99872464
       22910.600      0.99867345
       22910.640      0.99862046
       22910.680      0.99856551
       22910.720      0.99850825
       22910.760      0.99844808
       22910.800      0.99838416
       22910.840      0.99831552
       22910.880      0.99824114
       22910.920      0.99815995
       22910.960      0.99807089
       22911.000      0.99797287
       22911.040      0.99786484
       22911.080      0.99774583
       22911.120      0.99761498
       22911.160      0.99747175
       22911.200      0.99731620
       22911.240      0.99714937
       22911.280      0.99697360
       22911.320      0.99679216
       22911.360      0.99660884
       22911.400      0.99642769
       22911.440      0.99625291
       22911.480      0.99608871
       22911.520      0.99593933
       22911.560      0.99580893
       22911.600      0.99570153
       22911.640      0.99562081
       22911.680      0.99556979
       22911.720      0.99555016
       22911.760      0.99556165
       22911.800      0.99560192
       22911.840      0.99566737
       22911.880      0.99575376
       22911.920      0.99585651
       22911.960      0.99597098
       22912.000      0.99609262
       22912.040      0.99621717
       22912.080      0.99634094
       22912.120      0.99646112
       22912.160      0.99657558
       22912.200      0.99668259
       22912.240      0.99678063
       22912.280      0.99686831
       22912.320      0.99694437
       22912.360      0.99700773
       22912.400      0.99705758
       22912.440      0.99709364
       22912.480      0.99711613
       22912.520      0.99712572
       22912.560      0.99712334
       22912.600      0.99711004
       22912.640      0.99708697
       22912.680      0.99705537
       22912.720      0.99701658
       22912.760      0.99697222
       22912.800      0.99692426
       22912.840      0.99687510
       22912.880      0.99682735
       22912.920      0.99678376
       22912.960      0.99674708
       22913.000      0.99672000
       22913.040      0.99670503
       22913.080      0.99670425
       22913.120      0.99671902
       22913.160      0.99674967
       22913.200      0.99679565
       22913.240      0.99685586
       22913.280      0.99692895
       22913.320      0.99701343
       22913.360      0.99710776
       22913.400      0.99721035
       22913.440      0.99731963
       22913.480      0.99743402
       22913.520      0.99755194
       22913.560      0.99767180
       22913.600      0.99779204
       22913.640      0.99791108
       22913.680      0.99802739
       22913.720      0.99813953
       22913.760      0.99824621
       22913.800      0.99834642
       22913.840      0.99843959
       22913.880      0.99852561
       22913.920      0.99860463
       22913.960      0.99867698
       22914.000      0.99874307
       22914.040      0.99880333
       22914.080      0.99885821
       22914.120      0.99890817
       22914.160      0.99895365
       22914.200      0.99899512
       22914.240      0.99903303
       22914.280      0.99906784
       22914.320      0.99910000
       22914.360      0.99912995
       22914.400      0.99915814
       22914.440      0.99918495
       22914.480      0.99921073
       22914.520      0.99923573
       22914.560      0.99926008
       22914.600      0.99928385
       22914.640      0.99930704
       22914.680      0.99932963
       22914.720      0.99935161
       22914.760      0.99937295
       22914.800      0.99939362
       22914.840      0.99941358
       22914.880      0.99943280
       22914.920      0.99945127
       22914.960      0.99946893
       22915.000      0.99948578
       22915.040      0.99950177
       22915.080      0.99951688
       22915.120      0.99953108
       22915.160      0.99954437
       22915.200      0.99955674
       22915.240      0.99956822
       22915.280      0.99957884
       22915.320      0.99958864
       22915.360      0.99959768
       22915.400      0.99960602
       22915.440      0.99961371
       22915.480      0.99962080
       22915.520      0.99962735
       22915.560      0.99963341
       22915.600      0.99963905
       22915.640      0.99964431
       22915.680      0.99964925
       22915.720      0.99965394
       22915.760      0.99965841
       22915.800      0.99966272
       22915.840      0.99966693
       22915.880      0.99967106
       22915.920      0.99967515
       22915.960      0.99967921
       22916.000      0.99968324
       22916.040      0.99968725
       22916.080      0.99969123
       22916.120      0.99969518
       22916.160      0.99969910
       22916.200      0.99970299
       22916.240      0.99970685
       22916.280      0.99971068
       22916.320      0.99971447
       22916.360      0.99971822
       22916.400      0.99972194
       22916.440      0.99972561
       22916.480      0.99972924
       22916.520      0.99973282
       22916.560      0.99973636
       22916.600      0.99973984
       22916.640      0.99974328
       22916.680      0.99974666
       22916.720      0.99975000
       22916.760      0.99975327
       22916.800      0.99975649
       22916.840      0.99975964
       22916.880      0.99976274
       22916.920      0.99976577
       22916.960      0.99976874
       22917.000      0.99977164
       22917.040      0.99977447
       22917.080      0.99977723
       22917.120      0.99977992
       22917.160      0.99978253
       22917.200      0.99978507
       22917.240      0.99978753
       22917.280      0.99978991
       22917.320      0.99979222
       22917.360      0.99979445
       22917.400      0.99979661
       22917.440      0.99979869
       22917.480      0.99980070
       22917.520      0.99980265
       22917.560      0.99980452
       22917.600      0.99980633
       22917.640      0.99980808
       22917.680      0.99980977
       22917.720      0.99981139
       22917.760      0.99981295
       22917.800      0.99981446
       22917.840      0.99981592
       22917.880      0.99981731
       22917.920      0.99981866
       22917.960      0.99981996
       22918.000      0.99982121
       22918.040      0.99982241
       22918.080      0.99982357
       22918.120      0.99982469
       22918.160      0.99982576
       22918.200      0.99982680
       22918.240      0.99982780
       22918.280      0.99982876
       22918.320      0.99982969
       22918.360      0.99983059
       22918.400      0.99983145
       22918.440      0.99983229
       22918.480      0.99983310
       22918.520      0.99983388
       22918.560      0.99983465
       22918.600      0.99983539
       22918.640      0.99983610
       22918.680      0.99983680
       22918.720      0.99983748
       22918.760      0.99983815
       22918.800      0.99983879
       22918.840      0.99983942
       22918.880      0.99984002
       22918.920      0.99984061
       22918.960      0.99984119
       22919.000      0.99984174
       22919.040      0.99984228
       22919.080      0.99984280
       22919.120      0.99984331
       22919.160      0.99984380
       22919.200      0.99984427
       22919.240      0.99984472
       22919.280      0.99984516
       22919.320      0.99984559
       22919.360      0.99984599
       22919.400      0.99984639
       22919.440      0.99984676
       22919.480      0.99984712
       22919.520      0.99984747
       22919.560      0.99984780
       22919.600      0.99984812
       22919.640      0.99984842
       22919.680      0.99984871
       22919.720      0.99984898
       22919.760      0.99984924
       22919.800      0.99984949
       22919.840      0.99984972
       22919.880      0.99984994
       22919.920      0.99985015
       22919.960      0.99985034
       22920.000      0.99985052
       22920.040      0.99985069
       22920.080      0.99985084
       22920.120      0.99985098
       22920.160      0.99985111
       22920.200      0.99985123
       22920.240      0.99985133
       22920.280      0.99985143
       22920.320      0.99985151
       22920.360      0.99985158
       22920.400      0.99985164
       22920.440      0.99985169
       22920.480      0.99985173
       22920.520      0.99985176
       22920.560      0.99985177
       22920.600      0.99985178
       22920.640      0.99985177
       22920.680      0.99985176
       22920.720      0.99985174
       22920.760      0.99985170
       22920.800      0.99985166
       22920.840      0.99985161
       22920.880      0.99985155
       22920.920      0.99985148
       22920.960      0.99985140
       22921.000      0.99985131
       22921.040      0.99985122
       22921.080      0.99985111
       22921.120      0.99985100
       22921.160      0.99985088
       22921.200      0.99985075
       22921.240      0.99985062
       22921.280      0.99985047
       22921.320      0.99985032
       22921.360      0.99985017
       22921.400      0.99985000
       22921.440      0.99984983
       22921.480      0.99984965
       22921.520      0.99984947
       22921.560      0.99984928
       22921.600      0.99984908
       22921.640      0.99984887
       22921.680      0.99984866
       22921.720      0.99984844
       22921.760      0.99984821
       22921.800      0.99984798
       22921.840      0.99984774
       22921.880      0.99984749
       22921.920      0.99984723
       22921.960      0.99984696
       22922.000      0.99984669
       22922.040      0.99984641
       22922.080      0.99984613
       22922.120      0.99984583
       22922.160      0.99984553
       22922.200      0.99984522
       22922.240      0.99984490
       22922.280      0.99984457
       22922.320      0.99984423
       22922.360      0.99984389
       22922.400      0.99984354
       22922.440      0.99984318
       22922.480      0.99984281
       22922.520      0.99984243
       22922.560      0.99984204
       22922.600      0.99984165
       22922.640      0.99984125
       22922.680      0.99984083
       22922.720      0.99984041
       22922.760      0.99983998
       22922.800      0.99983955
       22922.840      0.99983910
       22922.880      0.99983864
       22922.920      0.99983818
       22922.960      0.99983770
       22923.000      0.99983722
       22923.040      0.99983672
       22923.080      0.99983622
       22923.120      0.99983571
       22923.160      0.99983519
       22923.200      0.99983465
       22923.240      0.99983411
       22923.280      0.99983356
       22923.320      0.99983300
       22923.360      0.99983243
       22923.400      0.99983185
       22923.440      0.99983126
       22923.480      0.99983066
       22923.520      0.99983005
       22923.560      0.99982943
       22923.600      0.99982880
       22923.640      0.99982816
       22923.680      0.99982750
       22923.720      0.99982684
       22923.760      0.99982617
       22923.800      0.99982549
       22923.840      0.99982479
       22923.880      0.99982409
       22923.920      0.99982337
       22923.960      0.99982265
       22924.000      0.99982191
       22924.040      0.99982116
       22924.080      0.99982040
       22924.120      0.99981963
       22924.160      0.99981885
