 #      wave           flux
       14900.000      0.99322749
       14900.030      0.99310829
       14900.060      0.99295069
       14900.090      0.99277168
       14900.120      0.99257958
       14900.150      0.99237749
       14900.180      0.99216559
       14900.210      0.99194281
       14900.240      0.99170756
       14900.270      0.99145805
       14900.300      0.99119242
       14900.330      0.99090874
       14900.360      0.99060505
       14900.390      0.99027937
       14900.420      0.98992968
       14900.450      0.98955387
       14900.480      0.98914963
       14900.510      0.98871413
       14900.540      0.98824370
       14900.570      0.98773343
       14900.600      0.98717688
       14900.630      0.98656506
       14900.660      0.98588435
       14900.690      0.98511468
       14900.720      0.98422782
       14900.750      0.98318200
       14900.780      0.98191138
       14900.810      0.98031577
       14900.840      0.97826184
       14900.870      0.97561868
       14900.900      0.97237306
       14900.930      0.96874150
       14900.960      0.96514126
       14900.990      0.96205141
       14901.020      0.95970468
       14901.050      0.95779620
       14901.080      0.95561757
       14901.110      0.95237172
       14901.140      0.94733533
       14901.170      0.93984849
       14901.200      0.92910638
       14901.230      0.91394447
       14901.260      0.89276851
       14901.290      0.86380313
       14901.320      0.82592931
       14901.350      0.78019874
       14901.380      0.73122375
       14901.410      0.68666035
       14901.440      0.65437917
       14901.470      0.63977697
       14901.500      0.64503047
       14901.530      0.66930790
       14901.560      0.70864576
       14901.590      0.75604050
       14901.620      0.80333711
       14901.650      0.84430071
       14901.680      0.87639396
       14901.710      0.90002305
       14901.740      0.91688990
       14901.770      0.92882924
       14901.800      0.93732484
       14901.830      0.94343301
       14901.860      0.94786166
       14901.890      0.95107718
       14901.920      0.95338783
       14901.950      0.95500123
       14901.980      0.95606047
       14902.010      0.95666583
       14902.040      0.95688829
       14902.070      0.95677801
       14902.100      0.95636991
       14902.130      0.95568784
       14902.160      0.95474654
       14902.190      0.95355337
       14902.220      0.95210937
       14902.250      0.95040974
       14902.280      0.94844404
       14902.310      0.94619647
       14902.340      0.94364767
       14902.370      0.94077791
       14902.400      0.93757508
       14902.430      0.93405076
       14902.460      0.93026498
       14902.490      0.92635533
       14902.520      0.92254898
       14902.550      0.91914147
       14902.580      0.91644802
       14902.610      0.91473124
       14902.640      0.91413662
       14902.670      0.91467613
       14902.700      0.91625389
       14902.730      0.91870862
       14902.760      0.92184793
       14902.790      0.92546739
       14902.820      0.92936061
       14902.850      0.93333482
       14902.880      0.93723262
       14902.910      0.94094507
       14902.940      0.94440631
       14902.970      0.94758909
       14903.000      0.95049019
       14903.030      0.95310196
       14903.060      0.95537281
       14903.090      0.95713299
       14903.120      0.95794605
       14903.150      0.95684851
       14903.180      0.95201111
       14903.210      0.94056314
       14903.240      0.91910366
       14903.270      0.88559458
       14903.300      0.84216707
       14903.330      0.79630356
       14903.360      0.75832404
       14903.390      0.73716004
       14903.420      0.73770108
       14903.450      0.76007430
       14903.480      0.79960620
       14903.510      0.84746398
       14903.540      0.89325303
       14903.570      0.92928100
       14903.600      0.95320384
       14903.630      0.96693120
       14903.660      0.97380606
       14903.690      0.97667375
       14903.720      0.97736878
       14903.750      0.97697708
       14903.780      0.97625296
       14903.810      0.97581649
       14903.840      0.97612316
       14903.870      0.97729800
       14903.900      0.97908473
       14903.930      0.98105934
       14903.960      0.98285812
       14903.990      0.98431492
       14904.020      0.98542846
       14904.050      0.98627142
       14904.080      0.98692471
       14904.110      0.98745080
       14904.140      0.98789393
       14904.170      0.98828341
       14904.200      0.98863603
       14904.230      0.98896089
       14904.260      0.98926322
       14904.290      0.98954624
       14904.320      0.98981221
       14904.350      0.99006296
       14904.380      0.99030014
       14904.410      0.99052530
       14904.440      0.99073982
       14904.470      0.99094484
       14904.500      0.99114119
       14904.530      0.99132942
       14904.560      0.99150998
       14904.590      0.99168326
       14904.620      0.99184959
       14904.650      0.99200930
       14904.680      0.99216268
       14904.710      0.99230998
       14904.740      0.99245141
       14904.770      0.99258720
       14904.800      0.99271754
       14904.830      0.99284263
       14904.860      0.99296269
       14904.890      0.99307791
       14904.920      0.99318849
       14904.950      0.99329463
       14904.980      0.99339654
       14905.010      0.99349440
       14905.040      0.99358839
       14905.070      0.99367868
       14905.100      0.99376538
       14905.130      0.99384858
       14905.160      0.99392834
       14905.190      0.99400472
       14905.220      0.99407778
       14905.250      0.99414757
       14905.280      0.99421415
       14905.310      0.99427756
       14905.340      0.99433787
       14905.370      0.99439512
       14905.400      0.99444937
       14905.430      0.99450066
       14905.460      0.99454903
       14905.490      0.99459451
       14905.520      0.99463710
       14905.550      0.99467681
       14905.580      0.99471362
       14905.610      0.99474753
       14905.640      0.99477851
       14905.670      0.99480657
       14905.700      0.99483168
       14905.730      0.99485383
       14905.760      0.99487301
       14905.790      0.99488921
       14905.820      0.99490239
       14905.850      0.99491253
       14905.880      0.99491957
       14905.910      0.99492338
       14905.940      0.99492383
       14905.970      0.99492075
       14906.000      0.99491396
       14906.030      0.99490328
       14906.060      0.99488853
       14906.090      0.99486952
       14906.120      0.99484607
       14906.150      0.99481800
       14906.180      0.99478511
       14906.210      0.99474722
       14906.240      0.99470410
       14906.270      0.99465553
       14906.300      0.99460119
       14906.330      0.99454070
       14906.360      0.99447361
       14906.390      0.99439945
       14906.420      0.99431773
       14906.450      0.99422789
       14906.480      0.99412928
       14906.510      0.99402110
       14906.540      0.99390237
       14906.570      0.99377200
       14906.600      0.99362887
       14906.630      0.99347175
       14906.660      0.99329935
       14906.690      0.99311019
       14906.720      0.99290244
       14906.750      0.99267381
       14906.780      0.99242133
       14906.810      0.99214067
       14906.840      0.99182478
       14906.870      0.99146006
       14906.900      0.99101433
       14906.930      0.99040442
       14906.960      0.98942223
       14906.990      0.98759646
       14907.020      0.98397296
       14907.050      0.97687543
       14907.080      0.96393350
       14907.110      0.94289097
       14907.140      0.91336066
       14907.170      0.87854804
       14907.200      0.84527132
       14907.230      0.82162015
       14907.260      0.81363195
       14907.290      0.82276489
       14907.320      0.84482996
       14907.350      0.87113560
       14907.380      0.89100731
       14907.410      0.89565407
       14907.440      0.88247002
       14907.470      0.85660291
       14907.500      0.82822764
       14907.530      0.80786951
       14907.560      0.80255927
       14907.590      0.81409235
       14907.620      0.83898260
       14907.650      0.86977697
       14907.680      0.89784195
       14907.710      0.91672370
       14907.740      0.92377777
       14907.770      0.91910900
       14907.800      0.90349066
       14907.830      0.87726242
       14907.860      0.84086450
       14907.890      0.79657987
       14907.920      0.75003670
       14907.950      0.70948683
       14907.980      0.68284576
       14908.010      0.67508387
       14908.040      0.68737867
       14908.070      0.71704011
       14908.100      0.75760741
       14908.130      0.80025698
       14908.160      0.83716401
       14908.190      0.86458394
       14908.220      0.88316023
       14908.250      0.89604997
       14908.280      0.90675764
       14908.310      0.91769344
       14908.340      0.92963677
       14908.370      0.94195634
       14908.400      0.95326257
       14908.430      0.96206825
       14908.460      0.96711755
       14908.490      0.96736875
       14908.520      0.96198847
       14908.550      0.95079585
       14908.580      0.93515177
       14908.610      0.91851578
       14908.640      0.90573173
       14908.670      0.90111109
       14908.700      0.90647317
       14908.730      0.92031879
       14908.760      0.93860872
       14908.790      0.95671071
       14908.820      0.97134120
       14908.850      0.98137502
       14908.880      0.98738132
       14908.910      0.99060959
       14908.940      0.99221140
       14908.970      0.99295610
       14909.000      0.99326253
       14909.030      0.99330741
       14909.060      0.99311102
       14909.090      0.99256485
       14909.120      0.99140374
       14909.150      0.98914405
       14909.180      0.98505084
       14909.210      0.97829382
       14909.240      0.96846560
       14909.270      0.95647105
       14909.300      0.94509064
       14909.330      0.93816936
       14909.360      0.93848416
       14909.390      0.94590253
       14909.420      0.95742333
       14909.450      0.96902439
       14909.480      0.97763960
       14909.510      0.98171620
       14909.540      0.98048730
       14909.570      0.97321652
       14909.600      0.95931967
       14909.630      0.93938745
       14909.660      0.91625819
       14909.690      0.89490349
       14909.720      0.88076036
       14909.750      0.87755429
       14909.780      0.88592020
       14909.810      0.90333705
       14909.840      0.92526383
       14909.870      0.94697710
       14909.900      0.96512479
       14909.930      0.97837511
       14909.960      0.98701932
       14909.990      0.99214095
       14910.020      0.99493243
       14910.050      0.99635163
       14910.080      0.99703697
       14910.110      0.99736023
       14910.140      0.99751443
       14910.170      0.99758880
       14910.200      0.99761285
       14910.230      0.99757140
       14910.260      0.99738764
       14910.290      0.99686718
       14910.320      0.99559238
       14910.350      0.99277985
       14910.380      0.98719097
       14910.410      0.97732512
       14910.440      0.96212737
       14910.470      0.94219493
       14910.500      0.92067579
       14910.530      0.90274175
       14910.560      0.89355196
       14910.590      0.89594480
       14910.620      0.90917967
       14910.650      0.92926280
       14910.680      0.95073284
       14910.710      0.96904624
       14910.740      0.98210938
       14910.770      0.99013697
       14910.800      0.99448892
       14910.830      0.99661243
       14910.860      0.99756562
       14910.890      0.99796937
       14910.920      0.99813796
       14910.950      0.99821356
       14910.980      0.99825384
       14911.010      0.99828015
       14911.040      0.99829996
       14911.070      0.99831593
       14911.100      0.99832920
       14911.130      0.99834045
       14911.160      0.99835017
       14911.190      0.99835874
       14911.220      0.99836635
       14911.250      0.99837307
       14911.280      0.99837893
       14911.310      0.99838393
       14911.340      0.99838805
       14911.370      0.99839130
       14911.400      0.99839365
       14911.430      0.99839512
       14911.460      0.99839570
       14911.490      0.99839541
       14911.520      0.99839425
       14911.550      0.99839222
       14911.580      0.99838935
       14911.610      0.99838562
       14911.640      0.99838105
       14911.670      0.99837564
       14911.700      0.99836940
       14911.730      0.99836233
       14911.760      0.99835439
       14911.790      0.99834556
       14911.820      0.99833576
       14911.850      0.99832492
       14911.880      0.99831294
       14911.910      0.99829974
       14911.940      0.99828522
       14911.970      0.99826929
       14912.000      0.99825185
       14912.030      0.99823282
       14912.060      0.99821209
       14912.090      0.99818958
       14912.120      0.99816519
       14912.150      0.99813882
       14912.180      0.99811034
       14912.210      0.99807965
       14912.240      0.99804660
       14912.270      0.99801108
       14912.300      0.99797294
       14912.330      0.99793205
       14912.360      0.99788827
       14912.390      0.99784148
       14912.420      0.99779152
       14912.450      0.99773826
       14912.480      0.99768149
       14912.510      0.99762096
       14912.540      0.99755622
       14912.570      0.99748652
       14912.600      0.99741074
       14912.630      0.99732758
       14912.660      0.99723560
       14912.690      0.99713333
       14912.720      0.99701927
       14912.750      0.99689191
       14912.780      0.99674975
       14912.810      0.99659126
       14912.840      0.99641488
       14912.870      0.99621892
       14912.900      0.99600137
       14912.930      0.99575952
       14912.960      0.99548942
       14912.990      0.99518550
       14913.020      0.99484070
       14913.050      0.99444633
       14913.080      0.99399160
       14913.110      0.99346329
       14913.140      0.99284482
       14913.170      0.99211411
       14913.200      0.99124145
       14913.230      0.99018604
       14913.260      0.98888999
       14913.290      0.98726898
       14913.320      0.98519584
       14913.350      0.98246890
       14913.380      0.97875189
       14913.410      0.97347032
       14913.440      0.96564846
       14913.470      0.95369925
       14913.500      0.93529516
       14913.530      0.90764290
       14913.560      0.86871811
       14913.590      0.81966086
       14913.620      0.76678145
       14913.650      0.72019262
       14913.680      0.68940246
       14913.710      0.68013300
       14913.740      0.69394010
       14913.770      0.72846307
       14913.800      0.77712010
       14913.830      0.82992993
       14913.860      0.87723121
       14913.890      0.91378469
       14913.920      0.93930249
       14913.950      0.95612599
       14913.980      0.96701562
       14914.010      0.97415241
       14914.040      0.97898348
       14914.070      0.98238883
       14914.100      0.98488325
       14914.130      0.98676873
       14914.160      0.98822823
       14914.190      0.98937702
       14914.220      0.99029204
       14914.250      0.99102638
       14914.280      0.99161715
       14914.310      0.99209122
       14914.340      0.99246859
       14914.370      0.99276477
       14914.400      0.99299148
       14914.430      0.99315484
       14914.460      0.99325079
       14914.490      0.99325837
       14914.520      0.99312475
       14914.550      0.99272402
       14914.580      0.99176507
       14914.610      0.98962989
       14914.640      0.98518269
       14914.670      0.97666692
       14914.700      0.96191918
       14914.730      0.93918679
       14914.760      0.90841196
       14914.790      0.87218305
       14914.820      0.83546031
       14914.850      0.80419210
       14914.880      0.78379965
       14914.910      0.77809746
       14914.940      0.78853707
       14914.970      0.81351901
       14915.000      0.84804549
       14915.030      0.88457345
       14915.060      0.91554404
       14915.090      0.93631496
       14915.120      0.94613935
       14915.150      0.94679048
       14915.180      0.94057335
       14915.210      0.92907851
       14915.240      0.91268089
       14915.270      0.89038193
       14915.300      0.86009600
       14915.330      0.82010214
       14915.360      0.77197716
       14915.390      0.72280755
       14915.420      0.68312276
       14915.450      0.66199611
       14915.480      0.66427165
       14915.510      0.69034830
       14915.540      0.73592883
       14915.570      0.79170598
       14915.600      0.84576604
       14915.630      0.88871349
       14915.660      0.91639320
       14915.690      0.92801600
       14915.720      0.92332893
       14915.750      0.90215450
       14915.780      0.86656335
       14915.810      0.82321765
       14915.840      0.78259199
       14915.870      0.75515143
       14915.900      0.74789419
       14915.930      0.76297175
       14915.960      0.79748603
       14915.990      0.84385692
       14916.020      0.89172934
       14916.050      0.93197141
       14916.080      0.96031581
       14916.110      0.97753110
       14916.140      0.98683500
       14916.170      0.99147339
       14916.200      0.99371349
       14916.230      0.99481485
       14916.260      0.99539202
       14916.290      0.99573491
       14916.320      0.99598284
       14916.350      0.99619891
       14916.380      0.99640368
       14916.410      0.99659806
       14916.440      0.99677650
       14916.470      0.99693454
       14916.500      0.99707296
       14916.530      0.99719641
       14916.560      0.99730965
       14916.590      0.99741235
       14916.620      0.99749128
       14916.650      0.99750971
       14916.680      0.99738707
       14916.710      0.99694783
       14916.740      0.99581669
       14916.770      0.99326476
       14916.800      0.98811626
       14916.830      0.97890778
       14916.860      0.96453575
       14916.890      0.94541388
       14916.920      0.92442148
       14916.950      0.90652752
       14916.980      0.89687150
       14917.010      0.89845760
       14917.040      0.91080009
       14917.070      0.93013997
       14917.100      0.95114502
       14917.130      0.96926560
       14917.160      0.98231196
       14917.190      0.99039363
       14917.220      0.99480801
       14917.250      0.99698132
       14917.280      0.99796726
       14917.310      0.99839449
       14917.340      0.99858163
       14917.370      0.99867017
       14917.400      0.99871816
       14917.430      0.99874911
       14917.460      0.99877317
       14917.490      0.99879486
       14917.520      0.99881578
       14917.550      0.99883619
       14917.580      0.99885574
       14917.610      0.99887398
       14917.640      0.99889058
       14917.670      0.99890541
       14917.700      0.99891850
       14917.730      0.99892996
       14917.760      0.99893992
       14917.790      0.99894855
       14917.820      0.99895599
       14917.850      0.99896240
       14917.880      0.99896792
       14917.910      0.99897266
       14917.940      0.99897669
       14917.970      0.99897997
       14918.000      0.99898246
       14918.030      0.99898406
       14918.060      0.99898466
       14918.090      0.99898415
       14918.120      0.99898244
