 #      wave           flux
       14900.000      0.99674781
       14900.030      0.99670026
       14900.060      0.99663643
       14900.090      0.99656394
       14900.120      0.99648665
       14900.150      0.99640617
       14900.180      0.99632287
       14900.210      0.99623658
       14900.240      0.99614691
       14900.270      0.99605338
       14900.300      0.99595551
       14900.330      0.99585274
       14900.360      0.99574446
       14900.390      0.99562983
       14900.420      0.99550775
       14900.450      0.99537683
       14900.480      0.99523556
       14900.510      0.99508235
       14900.540      0.99491559
       14900.570      0.99473364
       14900.600      0.99453488
       14900.630      0.99431765
       14900.660      0.99408023
       14900.690      0.99382074
       14900.720      0.99353693
       14900.750      0.99322565
       14900.780      0.99288229
       14900.810      0.99250039
       14900.840      0.99207184
       14900.870      0.99158667
       14900.900      0.99103262
       14900.930      0.99039454
       14900.960      0.98965266
       14900.990      0.98878033
       14901.020      0.98774080
       14901.050      0.98648038
       14901.080      0.98491898
       14901.110      0.98293712
       14901.140      0.98034272
       14901.170      0.97680549
       14901.200      0.97175246
       14901.230      0.96421840
       14901.260      0.95267871
       14901.290      0.93504631
       14901.320      0.90920899
       14901.350      0.87454450
       14901.380      0.83398307
       14901.410      0.79451613
       14901.440      0.76462680
       14901.470      0.75079171
       14901.500      0.75581288
       14901.530      0.77864718
       14901.560      0.81442562
       14901.590      0.85523332
       14901.620      0.89292986
       14901.650      0.92258842
       14901.680      0.94342386
       14901.710      0.95711682
       14901.740      0.96588705
       14901.770      0.97153995
       14901.800      0.97528131
       14901.830      0.97784197
       14901.860      0.97964565
       14901.890      0.98093787
       14901.920      0.98186514
       14901.950      0.98251841
       14901.980      0.98295752
       14902.010      0.98322299
       14902.040      0.98334238
       14902.070      0.98333451
       14902.100      0.98321168
       14902.130      0.98298148
       14902.160      0.98264768
       14902.190      0.98221055
       14902.220      0.98166675
       14902.250      0.98100935
       14902.280      0.98022803
       14902.310      0.97930921
       14902.340      0.97823664
       14902.370      0.97699304
       14902.400      0.97556531
       14902.430      0.97395347
       14902.460      0.97218417
       14902.490      0.97032878
       14902.520      0.96850671
       14902.550      0.96686553
       14902.580      0.96555822
       14902.610      0.96471420
       14902.640      0.96440819
       14902.670      0.96465069
       14902.700      0.96539729
       14902.730      0.96656787
       14902.760      0.96806358
       14902.790      0.96977846
       14902.820      0.97160812
       14902.850      0.97345726
       14902.880      0.97524756
       14902.910      0.97692265
       14902.940      0.97845191
       14902.970      0.97982858
       14903.000      0.98106035
       14903.030      0.98216203
       14903.060      0.98315032
       14903.090      0.98404034
       14903.120      0.98484527
       14903.150      0.98557677
       14903.180      0.98624508
       14903.210      0.98685865
       14903.240      0.98742415
       14903.270      0.98794710
       14903.300      0.98843227
       14903.330      0.98888368
       14903.360      0.98930451
       14903.390      0.98969730
       14903.420      0.99006432
       14903.450      0.99040766
       14903.480      0.99072937
       14903.510      0.99103144
       14903.540      0.99131580
       14903.570      0.99158427
       14903.600      0.99183839
       14903.630      0.99207936
       14903.660      0.99230813
       14903.690      0.99252549
       14903.720      0.99273218
       14903.750      0.99292892
       14903.780      0.99311639
       14903.810      0.99329527
       14903.840      0.99346617
       14903.870      0.99362964
       14903.900      0.99378610
       14903.930      0.99393588
       14903.960      0.99407927
       14903.990      0.99421653
       14904.020      0.99434791
       14904.050      0.99447368
       14904.080      0.99459407
       14904.110      0.99470936
       14904.140      0.99481978
       14904.170      0.99492559
       14904.200      0.99502704
       14904.230      0.99512438
       14904.260      0.99521787
       14904.290      0.99530775
       14904.320      0.99539428
       14904.350      0.99547769
       14904.380      0.99555819
       14904.410      0.99563599
       14904.440      0.99571121
       14904.470      0.99578396
       14904.500      0.99585432
       14904.530      0.99592237
       14904.560      0.99598817
       14904.590      0.99605181
       14904.620      0.99611336
       14904.650      0.99617288
       14904.680      0.99623044
       14904.710      0.99628612
       14904.740      0.99633998
       14904.770      0.99639211
       14904.800      0.99644257
       14904.830      0.99649142
       14904.860      0.99653874
       14904.890      0.99658460
       14904.920      0.99662905
       14904.950      0.99667212
       14904.980      0.99671385
       14905.010      0.99675423
       14905.040      0.99679325
       14905.070      0.99683091
       14905.100      0.99686719
       14905.130      0.99690209
       14905.160      0.99693560
       14905.190      0.99696770
       14905.220      0.99699838
       14905.250      0.99702763
       14905.280      0.99705544
       14905.310      0.99708180
       14905.340      0.99710669
       14905.370      0.99713012
       14905.400      0.99715206
       14905.430      0.99717252
       14905.460      0.99719152
       14905.490      0.99720908
       14905.520      0.99722528
       14905.550      0.99724022
       14905.580      0.99725399
       14905.610      0.99726670
       14905.640      0.99727849
       14905.670      0.99728944
       14905.700      0.99729969
       14905.730      0.99730934
       14905.760      0.99731852
       14905.790      0.99732732
       14905.820      0.99733588
       14905.850      0.99734430
       14905.880      0.99735269
       14905.910      0.99736117
       14905.940      0.99736982
       14905.970      0.99737870
       14906.000      0.99738779
       14906.030      0.99739691
       14906.060      0.99740570
       14906.090      0.99741367
       14906.120      0.99742026
       14906.150      0.99742486
       14906.180      0.99742688
       14906.210      0.99742570
       14906.240      0.99742073
       14906.270      0.99741136
       14906.300      0.99739702
       14906.330      0.99737718
       14906.360      0.99735133
       14906.390      0.99731894
       14906.420      0.99727953
       14906.450      0.99723258
       14906.480      0.99717763
       14906.510      0.99711426
       14906.540      0.99704223
       14906.570      0.99696149
       14906.600      0.99687225
       14906.630      0.99677490
       14906.660      0.99667001
       14906.690      0.99655814
       14906.720      0.99643995
       14906.750      0.99631609
       14906.780      0.99618735
       14906.810      0.99605463
       14906.840      0.99591930
       14906.870      0.99578334
       14906.900      0.99564906
       14906.930      0.99551887
       14906.960      0.99539524
       14906.990      0.99528058
       14907.020      0.99517709
       14907.050      0.99508641
       14907.080      0.99500905
       14907.110      0.99494320
       14907.140      0.99488405
       14907.170      0.99482484
       14907.200      0.99475782
       14907.230      0.99467476
       14907.260      0.99456733
       14907.290      0.99442726
       14907.320      0.99424668
       14907.350      0.99401851
       14907.380      0.99373617
       14907.410      0.99339246
       14907.440      0.99297771
       14907.470      0.99247762
       14907.500      0.99187236
       14907.530      0.99113623
       14907.560      0.99023456
       14907.590      0.98911699
       14907.620      0.98770796
       14907.650      0.98588998
       14907.680      0.98347333
       14907.710      0.98013700
       14907.740      0.97533229
       14907.770      0.96814678
       14907.800      0.95718076
       14907.830      0.94060598
       14907.860      0.91675848
       14907.890      0.88557917
       14907.920      0.85032914
       14907.950      0.81771374
       14907.980      0.79542901
       14908.010      0.78899632
       14908.040      0.80000475
       14908.070      0.82574207
       14908.100      0.85986376
       14908.130      0.89460505
       14908.160      0.92403023
       14908.190      0.94587814
       14908.220      0.96081569
       14908.250      0.97065400
       14908.280      0.97713587
       14908.310      0.98152318
       14908.340      0.98461940
       14908.370      0.98690100
       14908.400      0.98864450
       14908.430      0.99001669
       14908.460      0.99112313
       14908.490      0.99203154
       14908.520      0.99278802
       14908.550      0.99342553
       14908.580      0.99396817
       14908.610      0.99443440
       14908.640      0.99483823
       14908.670      0.99519026
       14908.700      0.99549880
       14908.730      0.99577042
       14908.760      0.99601052
       14908.790      0.99622379
       14908.820      0.99641429
       14908.850      0.99658514
       14908.880      0.99673786
       14908.910      0.99687217
       14908.940      0.99698668
       14908.970      0.99707937
       14909.000      0.99714734
       14909.030      0.99718476
       14909.060      0.99717610
       14909.090      0.99707847
       14909.120      0.99678968
       14909.150      0.99611765
       14909.180      0.99479143
       14909.210      0.99250941
       14909.240      0.98910310
       14909.270      0.98487629
       14909.300      0.98082551
       14909.330      0.97836436
       14909.360      0.97852844
       14909.390      0.98123069
       14909.420      0.98535910
       14909.450      0.98960413
       14909.480      0.99307435
       14909.510      0.99542563
       14909.540      0.99680666
       14909.570      0.99755555
       14909.600      0.99795611
       14909.630      0.99817948
       14909.660      0.99831371
       14909.690      0.99840117
       14909.720      0.99846271
       14909.750      0.99850981
       14909.780      0.99854945
       14909.810      0.99858539
       14909.840      0.99861913
       14909.870      0.99865098
       14909.900      0.99868082
       14909.930      0.99870850
       14909.960      0.99873399
       14909.990      0.99875741
       14910.020      0.99877895
       14910.050      0.99879883
       14910.080      0.99881729
       14910.110      0.99883456
       14910.140      0.99885087
       14910.170      0.99886642
       14910.200      0.99888138
       14910.230      0.99889583
       14910.260      0.99890982
       14910.290      0.99892334
       14910.320      0.99893640
       14910.350      0.99894898
       14910.380      0.99896107
       14910.410      0.99897267
       14910.440      0.99898376
       14910.470      0.99899435
       14910.500      0.99900444
       14910.530      0.99901407
       14910.560      0.99902324
       14910.590      0.99903201
       14910.620      0.99904039
       14910.650      0.99904841
       14910.680      0.99905611
       14910.710      0.99906350
       14910.740      0.99907058
       14910.770      0.99907733
       14910.800      0.99908368
       14910.830      0.99908956
       14910.860      0.99909488
       14910.890      0.99909956
       14910.920      0.99910349
       14910.950      0.99910661
       14910.980      0.99910883
       14911.010      0.99911013
       14911.040      0.99911050
       14911.070      0.99910996
       14911.100      0.99910847
       14911.130      0.99910566
       14911.160      0.99910043
       14911.190      0.99909020
       14911.220      0.99906970
       14911.250      0.99902781
       14911.280      0.99893894
       14911.310      0.99874420
       14911.340      0.99831894
       14911.370      0.99743679
       14911.400      0.99576042
       14911.430      0.99292843
       14911.460      0.98889121
       14911.490      0.98421564
       14911.520      0.98007077
       14911.550      0.97793197
       14911.580      0.97874088
       14911.610      0.98212382
       14911.640      0.98673830
       14911.670      0.99119680
       14911.700      0.99462335
       14911.730      0.99679965
       14911.760      0.99800624
       14911.790      0.99861163
       14911.820      0.99889596
       14911.850      0.99902697
       14911.880      0.99908887
       14911.910      0.99911962
       14911.940      0.99913585
       14911.970      0.99914522
       14912.000      0.99915138
       14912.030      0.99915582
       14912.060      0.99915899
       14912.090      0.99916095
       14912.120      0.99916161
       14912.150      0.99916094
       14912.180      0.99915897
       14912.210      0.99915574
       14912.240      0.99915134
       14912.270      0.99914587
       14912.300      0.99913939
       14912.330      0.99913199
       14912.360      0.99912371
       14912.390      0.99911456
       14912.420      0.99910446
       14912.450      0.99909328
       14912.480      0.99908087
       14912.510      0.99906706
       14912.540      0.99905167
       14912.570      0.99903452
       14912.600      0.99901544
       14912.630      0.99899424
       14912.660      0.99897074
       14912.690      0.99894475
       14912.720      0.99891607
       14912.750      0.99888452
       14912.780      0.99884988
       14912.810      0.99881195
       14912.840      0.99877046
       14912.870      0.99872504
       14912.900      0.99867504
       14912.930      0.99861934
       14912.960      0.99855615
       14912.990      0.99848317
       14913.020      0.99839782
       14913.050      0.99829740
       14913.080      0.99817906
       14913.110      0.99803977
       14913.140      0.99787593
       14913.170      0.99768271
       14913.200      0.99745267
       14913.230      0.99717415
       14913.260      0.99682977
       14913.290      0.99639336
       14913.320      0.99582385
       14913.350      0.99505000
       14913.380      0.99393542
       14913.410      0.99220568
       14913.440      0.98932351
       14913.470      0.98429017
       14913.500      0.97539620
       14913.530      0.96018109
       14913.560      0.93611162
       14913.590      0.90252355
       14913.620      0.86307471
       14913.650      0.82589450
       14913.680      0.80016803
       14913.710      0.79225131
       14913.740      0.80402296
       14913.770      0.83266787
       14913.800      0.87105447
       14913.830      0.90985319
       14913.860      0.94164777
       14913.890      0.96377683
       14913.920      0.97748886
       14913.950      0.98541474
       14913.980      0.98988532
       14914.010      0.99245422
       14914.040      0.99401160
       14914.070      0.99502481
       14914.100      0.99573186
       14914.130      0.99625384
       14914.160      0.99665239
       14914.190      0.99696034
       14914.220      0.99719808
       14914.250      0.99738090
       14914.280      0.99752170
       14914.310      0.99763132
       14914.340      0.99771771
       14914.370      0.99778541
       14914.400      0.99783657
       14914.430      0.99787213
       14914.460      0.99789250
       14914.490      0.99789782
       14914.520      0.99788812
       14914.550      0.99786332
       14914.580      0.99782319
       14914.610      0.99776742
       14914.640      0.99769547
       14914.670      0.99760644
       14914.700      0.99749848
       14914.730      0.99736793
       14914.760      0.99720851
       14914.790      0.99701169
       14914.820      0.99676738
       14914.850      0.99646391
       14914.880      0.99608653
       14914.910      0.99561365
       14914.940      0.99500949
       14914.970      0.99421437
       14915.000      0.99313365
       14915.030      0.99162182
       14915.060      0.98946370
       14915.090      0.98636998
       14915.120      0.98200565
       14915.150      0.97607522
       14915.180      0.96844407
       14915.210      0.95920637
       14915.240      0.94855113
       14915.270      0.93631359
       14915.300      0.92138616
       14915.330      0.90219075
       14915.360      0.87833219
       14915.390      0.85222545
       14915.420      0.82954354
       14915.450      0.81744089
       14915.480      0.82111459
       14915.510      0.84102607
       14915.540      0.87250284
       14915.570      0.90749020
       14915.600      0.93826447
       14915.630      0.96087047
       14915.660      0.97542538
       14915.690      0.98404781
       14915.720      0.98897729
       14915.750      0.99182430
       14915.780      0.99355020
       14915.810      0.99467938
       14915.840      0.99547655
       14915.870      0.99607322
       14915.900      0.99653871
       14915.930      0.99691341
       14915.960      0.99722259
       14915.990      0.99748257
       14916.020      0.99770359
       14916.050      0.99789232
       14916.080      0.99805369
       14916.110      0.99819190
       14916.140      0.99831082
       14916.170      0.99841410
       14916.200      0.99850511
       14916.230      0.99858664
       14916.260      0.99866063
       14916.290      0.99872827
       14916.320      0.99879031
       14916.350      0.99884731
       14916.380      0.99889975
       14916.410      0.99894806
       14916.440      0.99899264
       14916.470      0.99903387
       14916.500      0.99907204
       14916.530      0.99910738
       14916.560      0.99914008
       14916.590      0.99917031
       14916.620      0.99919823
       14916.650      0.99922398
       14916.680      0.99924774
       14916.710      0.99926963
       14916.740      0.99928983
       14916.770      0.99930848
       14916.800      0.99932574
       14916.830      0.99934176
       14916.860      0.99935669
       14916.890      0.99937069
       14916.920      0.99938389
       14916.950      0.99939642
       14916.980      0.99940840
       14917.010      0.99941988
       14917.040      0.99943091
       14917.070      0.99944150
       14917.100      0.99945166
       14917.130      0.99946141
       14917.160      0.99947075
       14917.190      0.99947969
       14917.220      0.99948823
       14917.250      0.99949640
       14917.280      0.99950418
       14917.310      0.99951160
       14917.340      0.99951866
       14917.370      0.99952537
       14917.400      0.99953173
       14917.430      0.99953775
       14917.460      0.99954345
       14917.490      0.99954883
       14917.520      0.99955390
       14917.550      0.99955867
       14917.580      0.99956317
       14917.610      0.99956739
       14917.640      0.99957135
       14917.670      0.99957506
       14917.700      0.99957854
       14917.730      0.99958179
       14917.760      0.99958484
       14917.790      0.99958768
       14917.820      0.99959034
       14917.850      0.99959282
       14917.880      0.99959514
       14917.910      0.99959730
       14917.940      0.99959932
       14917.970      0.99960118
       14918.000      0.99960286
       14918.030      0.99960434
       14918.060      0.99960557
       14918.090      0.99960653
       14918.120      0.99960716
