 #      wave           flux
       22900.000      0.99995197
       22900.040      0.99995357
       22900.080      0.99995383
       22900.120      0.99995337
       22900.160      0.99995255
       22900.200      0.99995158
       22900.240      0.99995058
       22900.280      0.99994958
       22900.320      0.99994861
       22900.360      0.99994769
       22900.400      0.99994682
       22900.440      0.99994599
       22900.480      0.99994522
       22900.520      0.99994449
       22900.560      0.99994379
       22900.600      0.99994309
       22900.640      0.99994236
       22900.680      0.99994159
       22900.720      0.99994074
       22900.760      0.99993979
       22900.800      0.99993870
       22900.840      0.99993746
       22900.880      0.99993603
       22900.920      0.99993440
       22900.960      0.99993258
       22901.000      0.99993059
       22901.040      0.99992848
       22901.080      0.99992631
       22901.120      0.99992410
       22901.160      0.99992181
       22901.200      0.99991919
       22901.240      0.99991565
       22901.280      0.99991002
       22901.320      0.99990010
       22901.360      0.99988143
       22901.400      0.99984426
       22901.440      0.99976701
       22901.480      0.99960374
       22901.520      0.99926410
       22901.560      0.99858837
       22901.600      0.99732937
       22901.640      0.99515714
       22901.680      0.99173317
       22901.720      0.98691181
       22901.760      0.98094568
       22901.800      0.97454556
       22901.840      0.96881914
       22901.880      0.96503646
       22901.920      0.96418903
       22901.960      0.96653972
       22902.000      0.97147758
       22902.040      0.97779600
       22902.080      0.98417639
       22902.120      0.98963189
       22902.160      0.99371348
       22902.200      0.99644559
       22902.240      0.99811231
       22902.280      0.99904382
       22902.320      0.99951106
       22902.360      0.99971629
       22902.400      0.99979846
       22902.440      0.99983576
       22902.480      0.99986133
       22902.520      0.99988411
       22902.560      0.99990352
       22902.600      0.99991762
       22902.640      0.99992569
       22902.680      0.99992820
       22902.720      0.99992643
       22902.760      0.99992198
       22902.800      0.99991648
       22902.840      0.99991133
       22902.880      0.99990743
       22902.920      0.99990513
       22902.960      0.99990438
       22903.000      0.99990489
       22903.040      0.99990631
       22903.080      0.99990823
       22903.120      0.99991028
       22903.160      0.99991215
       22903.200      0.99991366
       22903.240      0.99991473
       22903.280      0.99991534
       22903.320      0.99991552
       22903.360      0.99991532
       22903.400      0.99991477
       22903.440      0.99991392
       22903.480      0.99991285
       22903.520      0.99991158
       22903.560      0.99991019
       22903.600      0.99990872
       22903.640      0.99990721
       22903.680      0.99990574
       22903.720      0.99990432
       22903.760      0.99990301
       22903.800      0.99990182
       22903.840      0.99990075
       22903.880      0.99989981
       22903.920      0.99989898
       22903.960      0.99989825
       22904.000      0.99989760
       22904.040      0.99989701
       22904.080      0.99989648
       22904.120      0.99989597
       22904.160      0.99989549
       22904.200      0.99989500
       22904.240      0.99989451
       22904.280      0.99989398
       22904.320      0.99989341
       22904.360      0.99989278
       22904.400      0.99989209
       22904.440      0.99989133
       22904.480      0.99989050
       22904.520      0.99988960
       22904.560      0.99988864
       22904.600      0.99988760
       22904.640      0.99988651
       22904.680      0.99988536
       22904.720      0.99988415
       22904.760      0.99988289
       22904.800      0.99988158
       22904.840      0.99988021
       22904.880      0.99987880
       22904.920      0.99987735
       22904.960      0.99987586
       22905.000      0.99987433
       22905.040      0.99987276
       22905.080      0.99987116
       22905.120      0.99986953
       22905.160      0.99986787
       22905.200      0.99986619
       22905.240      0.99986448
       22905.280      0.99986276
       22905.320      0.99986102
       22905.360      0.99985926
       22905.400      0.99985750
       22905.440      0.99985572
       22905.480      0.99985394
       22905.520      0.99985215
       22905.560      0.99985036
       22905.600      0.99984857
       22905.640      0.99984678
       22905.680      0.99984498
       22905.720      0.99984318
       22905.760      0.99984137
       22905.800      0.99983955
       22905.840      0.99983772
       22905.880      0.99983587
       22905.920      0.99983400
       22905.960      0.99983210
       22906.000      0.99983018
       22906.040      0.99982823
       22906.080      0.99982624
       22906.120      0.99982422
       22906.160      0.99982216
       22906.200      0.99982005
       22906.240      0.99981790
       22906.280      0.99981570
       22906.320      0.99981345
       22906.360      0.99981114
       22906.400      0.99980877
       22906.440      0.99980635
       22906.480      0.99980385
       22906.520      0.99980129
       22906.560      0.99979866
       22906.600      0.99979595
       22906.640      0.99979317
       22906.680      0.99979030
       22906.720      0.99978736
       22906.760      0.99978432
       22906.800      0.99978119
       22906.840      0.99977798
       22906.880      0.99977466
       22906.920      0.99977126
       22906.960      0.99976775
       22907.000      0.99976415
       22907.040      0.99976044
       22907.080      0.99975664
       22907.120      0.99975273
       22907.160      0.99974872
       22907.200      0.99974461
       22907.240      0.99974039
       22907.280      0.99973606
       22907.320      0.99973162
       22907.360      0.99972708
       22907.400      0.99972242
       22907.440      0.99971766
       22907.480      0.99971277
       22907.520      0.99970778
       22907.560      0.99970267
       22907.600      0.99969744
       22907.640      0.99969209
       22907.680      0.99968663
       22907.720      0.99968105
       22907.760      0.99967534
       22907.800      0.99966951
       22907.840      0.99966356
       22907.880      0.99965748
       22907.920      0.99965127
       22907.960      0.99964494
       22908.000      0.99963847
       22908.040      0.99963186
       22908.080      0.99962510
       22908.120      0.99961817
       22908.160      0.99961105
       22908.200      0.99960372
       22908.240      0.99959617
       22908.280      0.99958835
       22908.320      0.99958026
       22908.360      0.99957186
       22908.400      0.99956313
       22908.440      0.99955405
       22908.480      0.99954460
       22908.520      0.99953475
       22908.560      0.99952448
       22908.600      0.99951376
       22908.640      0.99950258
       22908.680      0.99949090
       22908.720      0.99947870
       22908.760      0.99946596
       22908.800      0.99945266
       22908.840      0.99943877
       22908.880      0.99942427
       22908.920      0.99940914
       22908.960      0.99939334
       22909.000      0.99937686
       22909.040      0.99935968
       22909.080      0.99934176
       22909.120      0.99932309
       22909.160      0.99930364
       22909.200      0.99928338
       22909.240      0.99926228
       22909.280      0.99924031
       22909.320      0.99921739
       22909.360      0.99919349
       22909.400      0.99916851
       22909.440      0.99914240
       22909.480      0.99911508
       22909.520      0.99908647
       22909.560      0.99905649
       22909.600      0.99902508
       22909.640      0.99899214
       22909.680      0.99895762
       22909.720      0.99892141
       22909.760      0.99888345
       22909.800      0.99884362
       22909.840      0.99880179
       22909.880      0.99875776
       22909.920      0.99871122
       22909.960      0.99866178
       22910.000      0.99860896
       22910.040      0.99855225
       22910.080      0.99849111
       22910.120      0.99842501
       22910.160      0.99835339
       22910.200      0.99827572
       22910.240      0.99819144
       22910.280      0.99810001
       22910.320      0.99800087
       22910.360      0.99789343
       22910.400      0.99777706
       22910.440      0.99765101
       22910.480      0.99751432
       22910.520      0.99736566
       22910.560      0.99720321
       22910.600      0.99702479
       22910.640      0.99682791
       22910.680      0.99660976
       22910.720      0.99636716
       22910.760      0.99609644
       22910.800      0.99579305
       22910.840      0.99545116
       22910.880      0.99506332
       22910.920      0.99462049
       22910.960      0.99411160
       22911.000      0.99352282
       22911.040      0.99283718
       22911.080      0.99203412
       22911.120      0.99108800
       22911.160      0.98996592
       22911.200      0.98862648
       22911.240      0.98701954
       22911.280      0.98508788
       22911.320      0.98277114
       22911.360      0.98001393
       22911.400      0.97678048
       22911.440      0.97307887
       22911.480      0.96899039
       22911.520      0.96469599
       22911.560      0.96048948
       22911.600      0.95675757
       22911.640      0.95392209
       22911.680      0.95234643
       22911.720      0.95224126
       22911.760      0.95360328
       22911.800      0.95621320
       22911.840      0.95970079
       22911.880      0.96363766
       22911.920      0.96762962
       22911.960      0.97137490
       22912.000      0.97468337
       22912.040      0.97746129
       22912.080      0.97968155
       22912.120      0.98135187
       22912.160      0.98248896
       22912.200      0.98310013
       22912.240      0.98317253
       22912.280      0.98267092
       22912.320      0.98154394
       22912.360      0.97973860
       22912.400      0.97722256
       22912.440      0.97400927
       22912.480      0.97017777
       22912.520      0.96587863
       22912.560      0.96132112
       22912.600      0.95674444
       22912.640      0.95238408
       22912.680      0.94844313
       22912.720      0.94507260
       22912.760      0.94236523
       22912.800      0.94036355
       22912.840      0.93907298
       22912.880      0.93848376
       22912.920      0.93859500
       22912.960      0.93943288
       22913.000      0.94104843
       22913.040      0.94349274
       22913.080      0.94677397
       22913.120      0.95081271
       22913.160      0.95542532
       22913.200      0.96035053
       22913.240      0.96530166
       22913.280      0.97001863
       22913.320      0.97430819
       22913.360      0.97806684
       22913.400      0.98127051
       22913.440      0.98395015
       22913.480      0.98616683
       22913.520      0.98799132
       22913.560      0.98949319
       22913.600      0.99073512
       22913.640      0.99176916
       22913.680      0.99263669
       22913.720      0.99337033
       22913.760      0.99399570
       22913.800      0.99453320
       22913.840      0.99499921
       22913.880      0.99540677
       22913.920      0.99576579
       22913.960      0.99608338
       22914.000      0.99636485
       22914.040      0.99661447
       22914.080      0.99683605
       22914.120      0.99703315
       22914.160      0.99720919
       22914.200      0.99736744
       22914.240      0.99751093
       22914.280      0.99764226
       22914.320      0.99776336
       22914.360      0.99787554
       22914.400      0.99797971
       22914.440      0.99807658
       22914.480      0.99816674
       22914.520      0.99825074
       22914.560      0.99832911
       22914.600      0.99840233
       22914.640      0.99847088
       22914.680      0.99853515
       22914.720      0.99859545
       22914.760      0.99865205
       22914.800      0.99870515
       22914.840      0.99875493
       22914.880      0.99880157
       22914.920      0.99884524
       22914.960      0.99888611
       22915.000      0.99892435
       22915.040      0.99896014
       22915.080      0.99899363
       22915.120      0.99902500
       22915.160      0.99905442
       22915.200      0.99908206
       22915.240      0.99910808
       22915.280      0.99913265
       22915.320      0.99915595
       22915.360      0.99917812
       22915.400      0.99919932
       22915.440      0.99921968
       22915.480      0.99923929
       22915.520      0.99925821
       22915.560      0.99927649
       22915.600      0.99929414
       22915.640      0.99931119
       22915.680      0.99932764
       22915.720      0.99934353
       22915.760      0.99935884
       22915.800      0.99937361
       22915.840      0.99938784
       22915.880      0.99940155
       22915.920      0.99941475
       22915.960      0.99942745
       22916.000      0.99943967
       22916.040      0.99945142
       22916.080      0.99946271
       22916.120      0.99947356
       22916.160      0.99948398
       22916.200      0.99949398
       22916.240      0.99950358
       22916.280      0.99951279
       22916.320      0.99952162
       22916.360      0.99953010
       22916.400      0.99953822
       22916.440      0.99954602
       22916.480      0.99955349
       22916.520      0.99956066
       22916.560      0.99956754
       22916.600      0.99957415
       22916.640      0.99958050
       22916.680      0.99958659
       22916.720      0.99959246
       22916.760      0.99959810
       22916.800      0.99960354
       22916.840      0.99960879
       22916.880      0.99961387
       22916.920      0.99961877
       22916.960      0.99962353
       22917.000      0.99962813
       22917.040      0.99963259
       22917.080      0.99963690
       22917.120      0.99964104
       22917.160      0.99964501
       22917.200      0.99964880
       22917.240      0.99965238
       22917.280      0.99965574
       22917.320      0.99965887
       22917.360      0.99966176
       22917.400      0.99966439
       22917.440      0.99966675
       22917.480      0.99966882
       22917.520      0.99967059
       22917.560      0.99967205
       22917.600      0.99967317
       22917.640      0.99967396
       22917.680      0.99967439
       22917.720      0.99967445
       22917.760      0.99967414
       22917.800      0.99967346
       22917.840      0.99967242
       22917.880      0.99967104
       22917.920      0.99966934
       22917.960      0.99966735
       22918.000      0.99966509
       22918.040      0.99966258
       22918.080      0.99965982
       22918.120      0.99965680
       22918.160      0.99965341
       22918.200      0.99964951
       22918.240      0.99964480
       22918.280      0.99963894
       22918.320      0.99963151
       22918.360      0.99962210
       22918.400      0.99961027
       22918.440      0.99959558
       22918.480      0.99957759
       22918.520      0.99955584
       22918.560      0.99952983
       22918.600      0.99949895
       22918.640      0.99946238
       22918.680      0.99941875
       22918.720      0.99936561
       22918.760      0.99929849
       22918.800      0.99920954
       22918.840      0.99908686
       22918.880      0.99891355
       22918.920      0.99866504
       22918.960      0.99830373
       22919.000      0.99777317
       22919.040      0.99699724
       22919.080      0.99588798
       22919.120      0.99437825
       22919.160      0.99249136
       22919.200      0.99040304
       22919.240      0.98843068
       22919.280      0.98697583
       22919.320      0.98641354
       22919.360      0.98691774
       22919.400      0.98834358
       22919.440      0.99031713
       22919.480      0.99241673
       22919.520      0.99431297
       22919.560      0.99583577
       22919.600      0.99696433
       22919.640      0.99775979
       22919.680      0.99830511
       22919.720      0.99867651
       22919.760      0.99893178
       22919.800      0.99910975
       22919.840      0.99923631
       22919.880      0.99932927
       22919.920      0.99940071
       22919.960      0.99945800
       22920.000      0.99950532
       22920.040      0.99954513
       22920.080      0.99957894
       22920.120      0.99960779
       22920.160      0.99963241
       22920.200      0.99965339
       22920.240      0.99967124
       22920.280      0.99968643
       22920.320      0.99969941
       22920.360      0.99971063
       22920.400      0.99972047
       22920.440      0.99972932
       22920.480      0.99973744
       22920.520      0.99974497
       22920.560      0.99975200
       22920.600      0.99975852
       22920.640      0.99976452
       22920.680      0.99976998
       22920.720      0.99977486
       22920.760      0.99977915
       22920.800      0.99978283
       22920.840      0.99978593
       22920.880      0.99978852
       22920.920      0.99979071
       22920.960      0.99979264
       22921.000      0.99979445
       22921.040      0.99979631
       22921.080      0.99979836
       22921.120      0.99980074
       22921.160      0.99980352
       22921.200      0.99980672
       22921.240      0.99981022
       22921.280      0.99981374
       22921.320      0.99981692
       22921.360      0.99981933
       22921.400      0.99982055
       22921.440      0.99982016
       22921.480      0.99981786
       22921.520      0.99981356
       22921.560      0.99980757
       22921.600      0.99980083
       22921.640      0.99979487
       22921.680      0.99979108
       22921.720      0.99978909
       22921.760      0.99978417
       22921.800      0.99976303
       22921.840      0.99969882
       22921.880      0.99954425
       22921.920      0.99921755
       22921.960      0.99857708
       22922.000      0.99739375
       22922.040      0.99535896
       22922.080      0.99215669
       22922.120      0.98761525
       22922.160      0.98191542
       22922.200      0.97574297
       22922.240      0.97022944
       22922.280      0.96662902
       22922.320      0.96585839
       22922.360      0.96812180
       22922.400      0.97282784
       22922.440      0.97883247
       22922.480      0.98488697
       22922.520      0.99005953
       22922.560      0.99392655
       22922.600      0.99650954
       22922.640      0.99807657
       22922.680      0.99895189
       22922.720      0.99940954
       22922.760      0.99963747
       22922.800      0.99974550
       22922.840      0.99979272
       22922.880      0.99981056
       22922.920      0.99981608
       22922.960      0.99981830
       22923.000      0.99982115
       22923.040      0.99982562
       22923.080      0.99983132
       22923.120      0.99983737
       22923.160      0.99984295
       22923.200      0.99984759
       22923.240      0.99985112
       22923.280      0.99985359
       22923.320      0.99985513
       22923.360      0.99985592
       22923.400      0.99985615
       22923.440      0.99985604
       22923.480      0.99985576
       22923.520      0.99985549
       22923.560      0.99985534
       22923.600      0.99985537
       22923.640      0.99985560
       22923.680      0.99985600
       22923.720      0.99985655
       22923.760      0.99985722
       22923.800      0.99985795
       22923.840      0.99985872
       22923.880      0.99985949
       22923.920      0.99986022
       22923.960      0.99986089
       22924.000      0.99986149
       22924.040      0.99986200
       22924.080      0.99986244
       22924.120      0.99986279
       22924.160      0.99986307
