 #      wave           flux
       22900.000      0.99994078
       22900.040      0.99994277
       22900.080      0.99994353
       22900.120      0.99994362
       22900.160      0.99994337
       22900.200      0.99994296
       22900.240      0.99994249
       22900.280      0.99994200
       22900.320      0.99994150
       22900.360      0.99994099
       22900.400      0.99994048
       22900.440      0.99993998
       22900.480      0.99993947
       22900.520      0.99993896
       22900.560      0.99993844
       22900.600      0.99993793
       22900.640      0.99993742
       22900.680      0.99993690
       22900.720      0.99993638
       22900.760      0.99993586
       22900.800      0.99993534
       22900.840      0.99993482
       22900.880      0.99993429
       22900.920      0.99993377
       22900.960      0.99993324
       22901.000      0.99993271
       22901.040      0.99993217
       22901.080      0.99993164
       22901.120      0.99993110
       22901.160      0.99993055
       22901.200      0.99993001
       22901.240      0.99992946
       22901.280      0.99992891
       22901.320      0.99992836
       22901.360      0.99992780
       22901.400      0.99992724
       22901.440      0.99992668
       22901.480      0.99992611
       22901.520      0.99992554
       22901.560      0.99992497
       22901.600      0.99992439
       22901.640      0.99992381
       22901.680      0.99992322
       22901.720      0.99992263
       22901.760      0.99992204
       22901.800      0.99992144
       22901.840      0.99992084
       22901.880      0.99992023
       22901.920      0.99991962
       22901.960      0.99991900
       22902.000      0.99991838
       22902.040      0.99991775
       22902.080      0.99991712
       22902.120      0.99991649
       22902.160      0.99991585
       22902.200      0.99991520
       22902.240      0.99991455
       22902.280      0.99991389
       22902.320      0.99991323
       22902.360      0.99991256
       22902.400      0.99991189
       22902.440      0.99991121
       22902.480      0.99991053
       22902.520      0.99990983
       22902.560      0.99990914
       22902.600      0.99990843
       22902.640      0.99990772
       22902.680      0.99990701
       22902.720      0.99990629
       22902.760      0.99990556
       22902.800      0.99990482
       22902.840      0.99990408
       22902.880      0.99990333
       22902.920      0.99990257
       22902.960      0.99990181
       22903.000      0.99990104
       22903.040      0.99990026
       22903.080      0.99989947
       22903.120      0.99989867
       22903.160      0.99989787
       22903.200      0.99989705
       22903.240      0.99989622
       22903.280      0.99989538
       22903.320      0.99989453
       22903.360      0.99989367
       22903.400      0.99989279
       22903.440      0.99989190
       22903.480      0.99989100
       22903.520      0.99989008
       22903.560      0.99988915
       22903.600      0.99988820
       22903.640      0.99988724
       22903.680      0.99988626
       22903.720      0.99988526
       22903.760      0.99988424
       22903.800      0.99988321
       22903.840      0.99988215
       22903.880      0.99988108
       22903.920      0.99987999
       22903.960      0.99987888
       22904.000      0.99987774
       22904.040      0.99987659
       22904.080      0.99987541
       22904.120      0.99987421
       22904.160      0.99987299
       22904.200      0.99987175
       22904.240      0.99987048
       22904.280      0.99986918
       22904.320      0.99986786
       22904.360      0.99986652
       22904.400      0.99986515
       22904.440      0.99986375
       22904.480      0.99986232
       22904.520      0.99986087
       22904.560      0.99985939
       22904.600      0.99985788
       22904.640      0.99985634
       22904.680      0.99985477
       22904.720      0.99985317
       22904.760      0.99985153
       22904.800      0.99984987
       22904.840      0.99984818
       22904.880      0.99984645
       22904.920      0.99984469
       22904.960      0.99984289
       22905.000      0.99984106
       22905.040      0.99983920
       22905.080      0.99983730
       22905.120      0.99983536
       22905.160      0.99983339
       22905.200      0.99983138
       22905.240      0.99982934
       22905.280      0.99982725
       22905.320      0.99982513
       22905.360      0.99982297
       22905.400      0.99982077
       22905.440      0.99981853
       22905.480      0.99981624
       22905.520      0.99981392
       22905.560      0.99981156
       22905.600      0.99980915
       22905.640      0.99980670
       22905.680      0.99980420
       22905.720      0.99980167
       22905.760      0.99979908
       22905.800      0.99979646
       22905.840      0.99979378
       22905.880      0.99979107
       22905.920      0.99978830
       22905.960      0.99978548
       22906.000      0.99978262
       22906.040      0.99977971
       22906.080      0.99977674
       22906.120      0.99977373
       22906.160      0.99977065
       22906.200      0.99976753
       22906.240      0.99976435
       22906.280      0.99976111
       22906.320      0.99975782
       22906.360      0.99975447
       22906.400      0.99975106
       22906.440      0.99974758
       22906.480      0.99974405
       22906.520      0.99974045
       22906.560      0.99973679
       22906.600      0.99973307
       22906.640      0.99972927
       22906.680      0.99972542
       22906.720      0.99972149
       22906.760      0.99971749
       22906.800      0.99971343
       22906.840      0.99970929
       22906.880      0.99970508
       22906.920      0.99970080
       22906.960      0.99969645
       22907.000      0.99969201
       22907.040      0.99968751
       22907.080      0.99968292
       22907.120      0.99967826
       22907.160      0.99967351
       22907.200      0.99966869
       22907.240      0.99966378
       22907.280      0.99965879
       22907.320      0.99965371
       22907.360      0.99964853
       22907.400      0.99964325
       22907.440      0.99963785
       22907.480      0.99963233
       22907.520      0.99962666
       22907.560      0.99962084
       22907.600      0.99961485
       22907.640      0.99960868
       22907.680      0.99960231
       22907.720      0.99959574
       22907.760      0.99958894
       22907.800      0.99958191
       22907.840      0.99957463
       22907.880      0.99956708
       22907.920      0.99955926
       22907.960      0.99955115
       22908.000      0.99954274
       22908.040      0.99953401
       22908.080      0.99952495
       22908.120      0.99951555
       22908.160      0.99950578
       22908.200      0.99949565
       22908.240      0.99948514
       22908.280      0.99947422
       22908.320      0.99946290
       22908.360      0.99945115
       22908.400      0.99943896
       22908.440      0.99942632
       22908.480      0.99941321
       22908.520      0.99939963
       22908.560      0.99938555
       22908.600      0.99937097
       22908.640      0.99935587
       22908.680      0.99934024
       22908.720      0.99932405
       22908.760      0.99930730
       22908.800      0.99928997
       22908.840      0.99927203
       22908.880      0.99925345
       22908.920      0.99923421
       22908.960      0.99921428
       22909.000      0.99919361
       22909.040      0.99917219
       22909.080      0.99914997
       22909.120      0.99912693
       22909.160      0.99910304
       22909.200      0.99907826
       22909.240      0.99905255
       22909.280      0.99902589
       22909.320      0.99899825
       22909.360      0.99896959
       22909.400      0.99893987
       22909.440      0.99890904
       22909.480      0.99887705
       22909.520      0.99884379
       22909.560      0.99880911
       22909.600      0.99877282
       22909.640      0.99873466
       22909.680      0.99869437
       22909.720      0.99865167
       22909.760      0.99860628
       22909.800      0.99855792
       22909.840      0.99850630
       22909.880      0.99845114
       22909.920      0.99839215
       22909.960      0.99832905
       22910.000      0.99826155
       22910.040      0.99818937
       22910.080      0.99811222
       22910.120      0.99802980
       22910.160      0.99794180
       22910.200      0.99784787
       22910.240      0.99774759
       22910.280      0.99764043
       22910.320      0.99752571
       22910.360      0.99740262
       22910.400      0.99727032
       22910.440      0.99712787
       22910.480      0.99697433
       22910.520      0.99680861
       22910.560      0.99662947
       22910.600      0.99643525
       22910.640      0.99622361
       22910.680      0.99599133
       22910.720      0.99573445
       22910.760      0.99544855
       22910.800      0.99512898
       22910.840      0.99477088
       22910.880      0.99436912
       22910.920      0.99391802
       22910.960      0.99341083
       22911.000      0.99283888
       22911.040      0.99219065
       22911.080      0.99145150
       22911.120      0.99060354
       22911.160      0.98962557
       22911.200      0.98849328
       22911.240      0.98717805
       22911.280      0.98564460
       22911.320      0.98385232
       22911.360      0.98176885
       22911.400      0.97938762
       22911.440      0.97673464
       22911.480      0.97387018
       22911.520      0.97089903
       22911.560      0.96799118
       22911.600      0.96538875
       22911.640      0.96336833
       22911.680      0.96218424
       22911.720      0.96200067
       22911.760      0.96282360
       22911.800      0.96449694
       22911.840      0.96676042
       22911.880      0.96931871
       22911.920      0.97190477
       22911.960      0.97431612
       22912.000      0.97642404
       22912.040      0.97816007
       22912.080      0.97949451
       22912.120      0.98041515
       22912.160      0.98091155
       22912.200      0.98096444
       22912.240      0.98053991
       22912.280      0.97958943
       22912.320      0.97805627
       22912.360      0.97588830
       22912.400      0.97305490
       22912.440      0.96956775
       22912.480      0.96549789
       22912.520      0.96098290
       22912.560      0.95622125
       22912.600      0.95145401
       22912.640      0.94693591
       22912.680      0.94290538
       22912.720      0.93955911
       22912.760      0.93703729
       22912.800      0.93542090
       22912.840      0.93473626
       22912.880      0.93496412
       22912.920      0.93606023
       22912.960      0.93797159
       22913.000      0.94064221
       22913.040      0.94400769
       22913.080      0.94797629
       22913.120      0.95240954
       22913.160      0.95711859
       22913.200      0.96188337
       22913.240      0.96648878
       22913.280      0.97075989
       22913.320      0.97458272
       22913.360      0.97791039
       22913.400      0.98075123
       22913.440      0.98314831
       22913.480      0.98516060
       22913.520      0.98684949
       22913.560      0.98827151
       22913.600      0.98947575
       22913.640      0.99050255
       22913.680      0.99138402
       22913.720      0.99214582
       22913.760      0.99280855
       22913.800      0.99338908
       22913.840      0.99390116
       22913.880      0.99435583
       22913.920      0.99476159
       22913.960      0.99512471
       22914.000      0.99545005
       22914.040      0.99574172
       22914.080      0.99600342
       22914.120      0.99623870
       22914.160      0.99645097
       22914.200      0.99664351
       22914.240      0.99681938
       22914.280      0.99698119
       22914.320      0.99713095
       22914.360      0.99727006
       22914.400      0.99739954
       22914.440      0.99752019
       22914.480      0.99763274
       22914.520      0.99773784
       22914.560      0.99783613
       22914.600      0.99792823
       22914.640      0.99801469
       22914.680      0.99809601
       22914.720      0.99817256
       22914.760      0.99824464
       22914.800      0.99831249
       22914.840      0.99837633
       22914.880      0.99843637
       22914.920      0.99849280
       22914.960      0.99854582
       22915.000      0.99859562
       22915.040      0.99864239
       22915.080      0.99868634
       22915.120      0.99872765
       22915.160      0.99876652
       22915.200      0.99880315
       22915.240      0.99883772
       22915.280      0.99887044
       22915.320      0.99890148
       22915.360      0.99893105
       22915.400      0.99895930
       22915.440      0.99898639
       22915.480      0.99901244
       22915.520      0.99903753
       22915.560      0.99906169
       22915.600      0.99908498
       22915.640      0.99910743
       22915.680      0.99912905
       22915.720      0.99914988
       22915.760      0.99916994
       22915.800      0.99918926
       22915.840      0.99920786
       22915.880      0.99922578
       22915.920      0.99924302
       22915.960      0.99925963
       22916.000      0.99927562
       22916.040      0.99929102
       22916.080      0.99930585
       22916.120      0.99932015
       22916.160      0.99933393
       22916.200      0.99934722
       22916.240      0.99936004
       22916.280      0.99937240
       22916.320      0.99938432
       22916.360      0.99939581
       22916.400      0.99940688
       22916.440      0.99941755
       22916.480      0.99942783
       22916.520      0.99943772
       22916.560      0.99944724
       22916.600      0.99945640
       22916.640      0.99946522
       22916.680      0.99947369
       22916.720      0.99948184
       22916.760      0.99948967
       22916.800      0.99949719
       22916.840      0.99950443
       22916.880      0.99951138
       22916.920      0.99951805
       22916.960      0.99952447
       22917.000      0.99953062
       22917.040      0.99953653
       22917.080      0.99954218
       22917.120      0.99954759
       22917.160      0.99955273
       22917.200      0.99955762
       22917.240      0.99956225
       22917.280      0.99956661
       22917.320      0.99957071
       22917.360      0.99957453
       22917.400      0.99957808
       22917.440      0.99958135
       22917.480      0.99958434
       22917.520      0.99958704
       22917.560      0.99958945
       22917.600      0.99959157
       22917.640      0.99959340
       22917.680      0.99959492
       22917.720      0.99959613
       22917.760      0.99959703
       22917.800      0.99959760
       22917.840      0.99959781
       22917.880      0.99959764
       22917.920      0.99959707
       22917.960      0.99959605
       22918.000      0.99959455
       22918.040      0.99959253
       22918.080      0.99958994
       22918.120      0.99958671
       22918.160      0.99958274
       22918.200      0.99957783
       22918.240      0.99957174
       22918.280      0.99956417
       22918.320      0.99955476
       22918.360      0.99954317
       22918.400      0.99952902
       22918.440      0.99951192
       22918.480      0.99949146
       22918.520      0.99946716
       22918.560      0.99943840
       22918.600      0.99940434
       22918.640      0.99936376
       22918.680      0.99931486
       22918.720      0.99925487
       22918.760      0.99917921
       22918.800      0.99908048
       22918.840      0.99894794
       22918.880      0.99876702
       22918.920      0.99851764
       22918.960      0.99817076
       22919.000      0.99768485
       22919.040      0.99700741
       22919.080      0.99608286
       22919.120      0.99487554
       22919.160      0.99341488
       22919.200      0.99183551
       22919.240      0.99036841
       22919.280      0.98930074
       22919.320      0.98889731
       22919.360      0.98927530
       22919.400      0.99032335
       22919.440      0.99177447
       22919.480      0.99333807
       22919.520      0.99479853
       22919.560      0.99603271
       22919.600      0.99699336
       22919.640      0.99769458
       22919.680      0.99818846
       22919.720      0.99853664
       22919.760      0.99878864
       22919.800      0.99897654
       22919.840      0.99911987
       22919.880      0.99923071
       22919.920      0.99931686
       22919.960      0.99938395
       22920.000      0.99943656
       22920.040      0.99947860
       22920.080      0.99951333
       22920.120      0.99954310
       22920.160      0.99956935
       22920.200      0.99959284
       22920.240      0.99961403
       22920.280      0.99963315
       22920.320      0.99965040
       22920.360      0.99966593
       22920.400      0.99967985
       22920.440      0.99969231
       22920.480      0.99970343
       22920.520      0.99971332
       22920.560      0.99972213
       22920.600      0.99972996
       22920.640      0.99973695
       22920.680      0.99974322
       22920.720      0.99974888
       22920.760      0.99975406
       22920.800      0.99975886
       22920.840      0.99976336
       22920.880      0.99976763
       22920.920      0.99977170
       22920.960      0.99977559
       22921.000      0.99977931
       22921.040      0.99978287
       22921.080      0.99978628
       22921.120      0.99978955
       22921.160      0.99979267
       22921.200      0.99979566
       22921.240      0.99979851
       22921.280      0.99980125
       22921.320      0.99980386
       22921.360      0.99980635
       22921.400      0.99980873
       22921.440      0.99981101
       22921.480      0.99981318
       22921.520      0.99981526
       22921.560      0.99981724
       22921.600      0.99981912
       22921.640      0.99982092
       22921.680      0.99982264
       22921.720      0.99982428
       22921.760      0.99982584
       22921.800      0.99982732
       22921.840      0.99982874
       22921.880      0.99983010
       22921.920      0.99983140
       22921.960      0.99983263
       22922.000      0.99983382
       22922.040      0.99983496
       22922.080      0.99983605
       22922.120      0.99983710
       22922.160      0.99983812
       22922.200      0.99983910
       22922.240      0.99984005
       22922.280      0.99984098
       22922.320      0.99984188
       22922.360      0.99984276
       22922.400      0.99984362
       22922.440      0.99984446
       22922.480      0.99984529
       22922.520      0.99984609
       22922.560      0.99984688
       22922.600      0.99984765
       22922.640      0.99984841
       22922.680      0.99984915
       22922.720      0.99984987
       22922.760      0.99985058
       22922.800      0.99985127
       22922.840      0.99985194
       22922.880      0.99985261
       22922.920      0.99985325
       22922.960      0.99985389
       22923.000      0.99985451
       22923.040      0.99985511
       22923.080      0.99985570
       22923.120      0.99985628
       22923.160      0.99985685
       22923.200      0.99985741
       22923.240      0.99985795
       22923.280      0.99985848
       22923.320      0.99985900
       22923.360      0.99985951
       22923.400      0.99986001
       22923.440      0.99986049
       22923.480      0.99986097
       22923.520      0.99986144
       22923.560      0.99986189
       22923.600      0.99986233
       22923.640      0.99986277
       22923.680      0.99986319
       22923.720      0.99986360
       22923.760      0.99986401
       22923.800      0.99986440
       22923.840      0.99986478
       22923.880      0.99986515
       22923.920      0.99986551
       22923.960      0.99986586
       22924.000      0.99986620
       22924.040      0.99986653
       22924.080      0.99986685
       22924.120      0.99986716
       22924.160      0.99986746
