 #      wave           flux
       22900.000      0.99994080
       22900.040      0.99994274
       22900.080      0.99994345
       22900.120      0.99994348
       22900.160      0.99994316
       22900.200      0.99994269
       22900.240      0.99994216
       22900.280      0.99994160
       22900.320      0.99994103
       22900.360      0.99994046
       22900.400      0.99993989
       22900.440      0.99993931
       22900.480      0.99993874
       22900.520      0.99993816
       22900.560      0.99993758
       22900.600      0.99993700
       22900.640      0.99993642
       22900.680      0.99993583
       22900.720      0.99993525
       22900.760      0.99993466
       22900.800      0.99993407
       22900.840      0.99993347
       22900.880      0.99993288
       22900.920      0.99993228
       22900.960      0.99993168
       22901.000      0.99993107
       22901.040      0.99993046
       22901.080      0.99992985
       22901.120      0.99992924
       22901.160      0.99992862
       22901.200      0.99992800
       22901.240      0.99992738
       22901.280      0.99992675
       22901.320      0.99992612
       22901.360      0.99992548
       22901.400      0.99992484
       22901.440      0.99992419
       22901.480      0.99992354
       22901.520      0.99992289
       22901.560      0.99992223
       22901.600      0.99992157
       22901.640      0.99992090
       22901.680      0.99992023
       22901.720      0.99991955
       22901.760      0.99991887
       22901.800      0.99991818
       22901.840      0.99991748
       22901.880      0.99991678
       22901.920      0.99991608
       22901.960      0.99991537
       22902.000      0.99991465
       22902.040      0.99991392
       22902.080      0.99991319
       22902.120      0.99991246
       22902.160      0.99991172
       22902.200      0.99991097
       22902.240      0.99991021
       22902.280      0.99990945
       22902.320      0.99990868
       22902.360      0.99990790
       22902.400      0.99990712
       22902.440      0.99990632
       22902.480      0.99990552
       22902.520      0.99990472
       22902.560      0.99990390
       22902.600      0.99990308
       22902.640      0.99990225
       22902.680      0.99990141
       22902.720      0.99990057
       22902.760      0.99989971
       22902.800      0.99989885
       22902.840      0.99989798
       22902.880      0.99989710
       22902.920      0.99989621
       22902.960      0.99989531
       22903.000      0.99989440
       22903.040      0.99989348
       22903.080      0.99989255
       22903.120      0.99989161
       22903.160      0.99989066
       22903.200      0.99988970
       22903.240      0.99988873
       22903.280      0.99988774
       22903.320      0.99988674
       22903.360      0.99988572
       22903.400      0.99988470
       22903.440      0.99988365
       22903.480      0.99988259
       22903.520      0.99988152
       22903.560      0.99988043
       22903.600      0.99987932
       22903.640      0.99987820
       22903.680      0.99987706
       22903.720      0.99987590
       22903.760      0.99987472
       22903.800      0.99987352
       22903.840      0.99987230
       22903.880      0.99987107
       22903.920      0.99986981
       22903.960      0.99986853
       22904.000      0.99986723
       22904.040      0.99986591
       22904.080      0.99986456
       22904.120      0.99986320
       22904.160      0.99986181
       22904.200      0.99986039
       22904.240      0.99985895
       22904.280      0.99985749
       22904.320      0.99985600
       22904.360      0.99985448
       22904.400      0.99985294
       22904.440      0.99985137
       22904.480      0.99984978
       22904.520      0.99984815
       22904.560      0.99984650
       22904.600      0.99984482
       22904.640      0.99984311
       22904.680      0.99984137
       22904.720      0.99983960
       22904.760      0.99983780
       22904.800      0.99983597
       22904.840      0.99983410
       22904.880      0.99983221
       22904.920      0.99983028
       22904.960      0.99982832
       22905.000      0.99982632
       22905.040      0.99982429
       22905.080      0.99982223
       22905.120      0.99982013
       22905.160      0.99981800
       22905.200      0.99981582
       22905.240      0.99981362
       22905.280      0.99981137
       22905.320      0.99980909
       22905.360      0.99980677
       22905.400      0.99980441
       22905.440      0.99980202
       22905.480      0.99979958
       22905.520      0.99979710
       22905.560      0.99979459
       22905.600      0.99979203
       22905.640      0.99978943
       22905.680      0.99978679
       22905.720      0.99978410
       22905.760      0.99978138
       22905.800      0.99977861
       22905.840      0.99977579
       22905.880      0.99977293
       22905.920      0.99977003
       22905.960      0.99976708
       22906.000      0.99976407
       22906.040      0.99976102
       22906.080      0.99975791
       22906.120      0.99975475
       22906.160      0.99975153
       22906.200      0.99974825
       22906.240      0.99974491
       22906.280      0.99974152
       22906.320      0.99973805
       22906.360      0.99973452
       22906.400      0.99973093
       22906.440      0.99972726
       22906.480      0.99972352
       22906.520      0.99971972
       22906.560      0.99971583
       22906.600      0.99971187
       22906.640      0.99970783
       22906.680      0.99970371
       22906.720      0.99969951
       22906.760      0.99969523
       22906.800      0.99969086
       22906.840      0.99968640
       22906.880      0.99968185
       22906.920      0.99967722
       22906.960      0.99967249
       22907.000      0.99966766
       22907.040      0.99966274
       22907.080      0.99965772
       22907.120      0.99965260
       22907.160      0.99964738
       22907.200      0.99964206
       22907.240      0.99963663
       22907.280      0.99963109
       22907.320      0.99962543
       22907.360      0.99961966
       22907.400      0.99961376
       22907.440      0.99960771
       22907.480      0.99960151
       22907.520      0.99959515
       22907.560      0.99958861
       22907.600      0.99958187
       22907.640      0.99957493
       22907.680      0.99956778
       22907.720      0.99956039
       22907.760      0.99955276
       22907.800      0.99954487
       22907.840      0.99953670
       22907.880      0.99952826
       22907.920      0.99951952
       22907.960      0.99951046
       22908.000      0.99950109
       22908.040      0.99949137
       22908.080      0.99948131
       22908.120      0.99947089
       22908.160      0.99946008
       22908.200      0.99944889
       22908.240      0.99943730
       22908.280      0.99942529
       22908.320      0.99941285
       22908.360      0.99939997
       22908.400      0.99938664
       22908.440      0.99937284
       22908.480      0.99935855
       22908.520      0.99934377
       22908.560      0.99932849
       22908.600      0.99931268
       22908.640      0.99929633
       22908.680      0.99927944
       22908.720      0.99926199
       22908.760      0.99924395
       22908.800      0.99922531
       22908.840      0.99920603
       22908.880      0.99918607
       22908.920      0.99916540
       22908.960      0.99914398
       22909.000      0.99912174
       22909.040      0.99909866
       22909.080      0.99907469
       22909.120      0.99904977
       22909.160      0.99902387
       22909.200      0.99899693
       22909.240      0.99896892
       22909.280      0.99893978
       22909.320      0.99890947
       22909.360      0.99887795
       22909.400      0.99884515
       22909.440      0.99881102
       22909.480      0.99877549
       22909.520      0.99873844
       22909.560      0.99869972
       22909.600      0.99865912
       22909.640      0.99861637
       22909.680      0.99857122
       22909.720      0.99852337
       22909.760      0.99847255
       22909.800      0.99841846
       22909.840      0.99836081
       22909.880      0.99829932
       22909.920      0.99823369
       22909.960      0.99816363
       22910.000      0.99808886
       22910.040      0.99800908
       22910.080      0.99792400
       22910.120      0.99783331
       22910.160      0.99773669
       22910.200      0.99763377
       22910.240      0.99752409
       22910.280      0.99740703
       22910.320      0.99728181
       22910.360      0.99714749
       22910.400      0.99700305
       22910.440      0.99684742
       22910.480      0.99667945
       22910.520      0.99649794
       22910.560      0.99630149
       22910.600      0.99608837
       22910.640      0.99585625
       22910.680      0.99560203
       22910.720      0.99532193
       22910.760      0.99501182
       22910.800      0.99466735
       22910.840      0.99428399
       22910.880      0.99385699
       22910.920      0.99338116
       22910.960      0.99285046
       22911.000      0.99225735
       22911.040      0.99159216
       22911.080      0.99084304
       22911.120      0.98999622
       22911.160      0.98903630
       22911.200      0.98794655
       22911.240      0.98670923
       22911.280      0.98530586
       22911.320      0.98371846
       22911.360      0.98193454
       22911.400      0.97995525
       22911.440      0.97780289
       22911.480      0.97552900
       22911.520      0.97322220
       22911.560      0.97101437
       22911.600      0.96907758
       22911.640      0.96759708
       22911.680      0.96673438
       22911.720      0.96658564
       22911.760      0.96714845
       22911.800      0.96832304
       22911.840      0.96994144
       22911.880      0.97180874
       22911.920      0.97374461
       22911.960      0.97560564
       22912.000      0.97729139
       22912.040      0.97873887
       22912.080      0.97991117
       22912.120      0.98078521
       22912.160      0.98134259
       22912.200      0.98156308
       22912.240      0.98141959
       22912.280      0.98087719
       22912.320      0.97989686
       22912.360      0.97844299
       22912.400      0.97649437
       22912.440      0.97405777
       22912.480      0.97117962
       22912.520      0.96795144
       22912.560      0.96450789
       22912.600      0.96101741
       22912.640      0.95766422
       22912.680      0.95462811
       22912.720      0.95206608
       22912.760      0.95009708
       22912.800      0.94879780
       22912.840      0.94820174
       22912.880      0.94830402
       22912.920      0.94907450
       22912.960      0.95046804
       22913.000      0.95243181
       22913.040      0.95490474
       22913.080      0.95780929
       22913.120      0.96104228
       22913.160      0.96447095
       22913.200      0.96794743
       22913.240      0.97133196
       22913.280      0.97451006
       22913.320      0.97740370
       22913.360      0.97997805
       22913.400      0.98223261
       22913.440      0.98418712
       22913.480      0.98587189
       22913.520      0.98732172
       22913.560      0.98857137
       22913.600      0.98965247
       22913.640      0.99059161
       22913.680      0.99141062
       22913.720      0.99212778
       22913.760      0.99275871
       22913.800      0.99331675
       22913.840      0.99381316
       22913.880      0.99425712
       22913.920      0.99465579
       22913.960      0.99501453
       22914.000      0.99533756
       22914.040      0.99562857
       22914.080      0.99589091
       22914.120      0.99612784
       22914.160      0.99634248
       22914.200      0.99653785
       22914.240      0.99671676
       22914.280      0.99688162
       22914.320      0.99703432
       22914.360      0.99717620
       22914.400      0.99730827
       22914.440      0.99743135
       22914.480      0.99754616
       22914.520      0.99765339
       22914.560      0.99775370
       22914.600      0.99784772
       22914.640      0.99793604
       22914.680      0.99801916
       22914.720      0.99809747
       22914.760      0.99817128
       22914.800      0.99824082
       22914.840      0.99830632
       22914.880      0.99836798
       22914.920      0.99842600
       22914.960      0.99848057
       22915.000      0.99853189
       22915.040      0.99858015
       22915.080      0.99862555
       22915.120      0.99866828
       22915.160      0.99870853
       22915.200      0.99874651
       22915.240      0.99878240
       22915.280      0.99881639
       22915.320      0.99884868
       22915.360      0.99887945
       22915.400      0.99890887
       22915.440      0.99893710
       22915.480      0.99896424
       22915.520      0.99899038
       22915.560      0.99901557
       22915.600      0.99903984
       22915.640      0.99906323
       22915.680      0.99908575
       22915.720      0.99910745
       22915.760      0.99912833
       22915.800      0.99914843
       22915.840      0.99916776
       22915.880      0.99918637
       22915.920      0.99920426
       22915.960      0.99922147
       22916.000      0.99923801
       22916.040      0.99925392
       22916.080      0.99926922
       22916.120      0.99928393
       22916.160      0.99929808
       22916.200      0.99931169
       22916.240      0.99932478
       22916.280      0.99933738
       22916.320      0.99934949
       22916.360      0.99936114
       22916.400      0.99937234
       22916.440      0.99938312
       22916.480      0.99939348
       22916.520      0.99940344
       22916.560      0.99941303
       22916.600      0.99942225
       22916.640      0.99943113
       22916.680      0.99943967
       22916.720      0.99944790
       22916.760      0.99945583
       22916.800      0.99946348
       22916.840      0.99947087
       22916.880      0.99947800
       22916.920      0.99948490
       22916.960      0.99949158
       22917.000      0.99949804
       22917.040      0.99950429
       22917.080      0.99951032
       22917.120      0.99951612
       22917.160      0.99952168
       22917.200      0.99952699
       22917.240      0.99953203
       22917.280      0.99953679
       22917.320      0.99954125
       22917.360      0.99954540
       22917.400      0.99954922
       22917.440      0.99955270
       22917.480      0.99955583
       22917.520      0.99955858
       22917.560      0.99956095
       22917.600      0.99956293
       22917.640      0.99956449
       22917.680      0.99956562
       22917.720      0.99956631
       22917.760      0.99956654
       22917.800      0.99956631
       22917.840      0.99956560
       22917.880      0.99956440
       22917.920      0.99956270
       22917.960      0.99956049
       22918.000      0.99955777
       22918.040      0.99955450
       22918.080      0.99955066
       22918.120      0.99954620
       22918.160      0.99954100
       22918.200      0.99953487
       22918.240      0.99952750
       22918.280      0.99951852
       22918.320      0.99950751
       22918.360      0.99949404
       22918.400      0.99947765
       22918.440      0.99945787
       22918.480      0.99943421
       22918.520      0.99940608
       22918.560      0.99937277
       22918.600      0.99933333
       22918.640      0.99928645
       22918.680      0.99923025
       22918.720      0.99916186
       22918.760      0.99907664
       22918.800      0.99896718
       22918.840      0.99882294
       22918.880      0.99863015
       22918.920      0.99837077
       22918.960      0.99802031
       22919.000      0.99754594
       22919.040      0.99690915
       22919.080      0.99607393
       22919.120      0.99502444
       22919.160      0.99379653
       22919.200      0.99250439
       22919.240      0.99133005
       22919.280      0.99048958
       22919.320      0.99017568
       22919.360      0.99047166
       22919.400      0.99129663
       22919.440      0.99245648
       22919.480      0.99373528
       22919.520      0.99496381
       22919.560      0.99603531
       22919.600      0.99689934
       22919.640      0.99755589
       22919.680      0.99803879
       22919.720      0.99839286
       22919.760      0.99865658
       22919.800      0.99885685
       22919.840      0.99901157
       22919.880      0.99913251
       22919.920      0.99922759
       22919.960      0.99930260
       22920.000      0.99936223
       22920.040      0.99941049
       22920.080      0.99945069
       22920.120      0.99948525
       22920.160      0.99951566
       22920.200      0.99954278
       22920.240      0.99956710
       22920.280      0.99958894
       22920.320      0.99960856
       22920.360      0.99962613
       22920.400      0.99964184
       22920.440      0.99965584
       22920.480      0.99966829
       22920.520      0.99967933
       22920.560      0.99968911
       22920.600      0.99969778
       22920.640      0.99970550
       22920.680      0.99971239
       22920.720      0.99971862
       22920.760      0.99972431
       22920.800      0.99972958
       22920.840      0.99973455
       22920.880      0.99973928
       22920.920      0.99974380
       22920.960      0.99974815
       22921.000      0.99975233
       22921.040      0.99975634
       22921.080      0.99976019
       22921.120      0.99976389
       22921.160      0.99976744
       22921.200      0.99977083
       22921.240      0.99977408
       22921.280      0.99977719
       22921.320      0.99978015
       22921.360      0.99978298
       22921.400      0.99978568
       22921.440      0.99978825
       22921.480      0.99979070
       22921.520      0.99979303
       22921.560      0.99979525
       22921.600      0.99979736
       22921.640      0.99979937
       22921.680      0.99980128
       22921.720      0.99980310
       22921.760      0.99980483
       22921.800      0.99980649
       22921.840      0.99980806
       22921.880      0.99980957
       22921.920      0.99981100
       22921.960      0.99981238
       22922.000      0.99981370
       22922.040      0.99981497
       22922.080      0.99981619
       22922.120      0.99981737
       22922.160      0.99981852
       22922.200      0.99981963
       22922.240      0.99982072
       22922.280      0.99982179
       22922.320      0.99982284
       22922.360      0.99982387
       22922.400      0.99982489
       22922.440      0.99982589
       22922.480      0.99982688
       22922.520      0.99982786
       22922.560      0.99982882
       22922.600      0.99982976
       22922.640      0.99983069
       22922.680      0.99983160
       22922.720      0.99983249
       22922.760      0.99983337
       22922.800      0.99983422
       22922.840      0.99983506
       22922.880      0.99983588
       22922.920      0.99983668
       22922.960      0.99983746
       22923.000      0.99983822
       22923.040      0.99983896
       22923.080      0.99983967
       22923.120      0.99984036
       22923.160      0.99984103
       22923.200      0.99984168
       22923.240      0.99984230
       22923.280      0.99984290
       22923.320      0.99984347
       22923.360      0.99984402
       22923.400      0.99984455
       22923.440      0.99984505
       22923.480      0.99984552
       22923.520      0.99984598
       22923.560      0.99984641
       22923.600      0.99984682
       22923.640      0.99984721
       22923.680      0.99984757
       22923.720      0.99984792
       22923.760      0.99984824
       22923.800      0.99984854
       22923.840      0.99984883
       22923.880      0.99984910
       22923.920      0.99984934
       22923.960      0.99984957
       22924.000      0.99984978
       22924.040      0.99984998
       22924.080      0.99985015
       22924.120      0.99985031
       22924.160      0.99985046
