 #      wave           flux
       14900.000      0.99643302
       14900.030      0.99637887
       14900.060      0.99630646
       14900.090      0.99622431
       14900.120      0.99613674
       14900.150      0.99604554
       14900.180      0.99595112
       14900.210      0.99585326
       14900.240      0.99575153
       14900.270      0.99564537
       14900.300      0.99553422
       14900.330      0.99541747
       14900.360      0.99529438
       14900.390      0.99516400
       14900.420      0.99502507
       14900.450      0.99487600
       14900.480      0.99471506
       14900.510      0.99454042
       14900.540      0.99435024
       14900.570      0.99414264
       14900.600      0.99391574
       14900.630      0.99366766
       14900.660      0.99339643
       14900.690      0.99309989
       14900.720      0.99277543
       14900.750      0.99241947
       14900.780      0.99202666
       14900.810      0.99158959
       14900.840      0.99109891
       14900.870      0.99054312
       14900.900      0.98990808
       14900.930      0.98917622
       14900.960      0.98832456
       14900.990      0.98732194
       14901.020      0.98612559
       14901.050      0.98467485
       14901.080      0.98288002
       14901.110      0.98060397
       14901.140      0.97762597
       14901.170      0.97357311
       14901.200      0.96780725
       14901.230      0.95926326
       14901.260      0.94628237
       14901.290      0.92663439
       14901.320      0.89813964
       14901.350      0.86033276
       14901.380      0.81661750
       14901.410      0.77458864
       14901.440      0.74308686
       14901.470      0.72860133
       14901.500      0.73385105
       14901.530      0.75782631
       14901.560      0.79572163
       14901.590      0.83942810
       14901.620      0.88029153
       14901.650      0.91280318
       14901.680      0.93587865
       14901.710      0.95118671
       14901.740      0.96107151
       14901.770      0.96748270
       14901.800      0.97174182
       14901.830      0.97465988
       14901.860      0.97671211
       14901.890      0.97817632
       14901.920      0.97921938
       14901.950      0.97994532
       14901.980      0.98042263
       14902.010      0.98069758
       14902.040      0.98080142
       14902.070      0.98075543
       14902.100      0.98057357
       14902.130      0.98026421
       14902.160      0.97983084
       14902.190      0.97927279
       14902.220      0.97858558
       14902.250      0.97776082
       14902.280      0.97678591
       14902.310      0.97564386
       14902.340      0.97431428
       14902.370      0.97277581
       14902.400      0.97101269
       14902.430      0.96902531
       14902.460      0.96684652
       14902.490      0.96456322
       14902.520      0.96232062
       14902.550      0.96029924
       14902.580      0.95868761
       14902.610      0.95764555
       14902.640      0.95726478
       14902.670      0.95755695
       14902.700      0.95846654
       14902.730      0.95989522
       14902.760      0.96172314
       14902.790      0.96382190
       14902.820      0.96606283
       14902.850      0.96832740
       14902.880      0.97051936
       14902.910      0.97257065
       14902.940      0.97444426
       14902.970      0.97613146
       14903.000      0.97764100
       14903.030      0.97899056
       14903.060      0.98020033
       14903.090      0.98128894
       14903.120      0.98227272
       14903.150      0.98316592
       14903.180      0.98398086
       14903.210      0.98472780
       14903.240      0.98541502
       14903.270      0.98604941
       14903.300      0.98663691
       14903.330      0.98718252
       14903.360      0.98769025
       14903.390      0.98816339
       14903.420      0.98860483
       14903.450      0.98901726
       14903.480      0.98940323
       14903.510      0.98976515
       14903.540      0.99010536
       14903.570      0.99042601
       14903.600      0.99072895
       14903.630      0.99101568
       14903.660      0.99128737
       14903.690      0.99154503
       14903.720      0.99178962
       14903.750      0.99202203
       14903.780      0.99224314
       14903.810      0.99245380
       14903.840      0.99265480
       14903.870      0.99284681
       14903.900      0.99303036
       14903.930      0.99320585
       14903.960      0.99337365
       14903.990      0.99353407
       14904.020      0.99368743
       14904.050      0.99383405
       14904.080      0.99397423
       14904.110      0.99410827
       14904.140      0.99423650
       14904.170      0.99435922
       14904.200      0.99447673
       14904.230      0.99458935
       14904.260      0.99469739
       14904.290      0.99480115
       14904.320      0.99490094
       14904.350      0.99499704
       14904.380      0.99508974
       14904.410      0.99517925
       14904.440      0.99526573
       14904.470      0.99534931
       14904.500      0.99543009
       14904.530      0.99550815
       14904.560      0.99558357
       14904.590      0.99565644
       14904.620      0.99572683
       14904.650      0.99579483
       14904.680      0.99586052
       14904.710      0.99592397
       14904.740      0.99598527
       14904.770      0.99604450
       14904.800      0.99610173
       14904.830      0.99615705
       14904.860      0.99621054
       14904.890      0.99626226
       14904.920      0.99631230
       14904.950      0.99636069
       14904.980      0.99640748
       14905.010      0.99645268
       14905.040      0.99649631
       14905.070      0.99653836
       14905.100      0.99657886
       14905.130      0.99661781
       14905.160      0.99665521
       14905.190      0.99669108
       14905.220      0.99672541
       14905.250      0.99675822
       14905.280      0.99678951
       14905.310      0.99681929
       14905.340      0.99684756
       14905.370      0.99687434
       14905.400      0.99689963
       14905.430      0.99692345
       14905.460      0.99694580
       14905.490      0.99696672
       14905.520      0.99698624
       14905.550      0.99700443
       14905.580      0.99702133
       14905.610      0.99703701
       14905.640      0.99705152
       14905.670      0.99706492
       14905.700      0.99707728
       14905.730      0.99708866
       14905.760      0.99709911
       14905.790      0.99710869
       14905.820      0.99711747
       14905.850      0.99712550
       14905.880      0.99713285
       14905.910      0.99713956
       14905.940      0.99714568
       14905.970      0.99715123
       14906.000      0.99715617
       14906.030      0.99716035
       14906.060      0.99716347
       14906.090      0.99716514
       14906.120      0.99716491
       14906.150      0.99716232
       14906.180      0.99715691
       14906.210      0.99714820
       14906.240      0.99713575
       14906.270      0.99711915
       14906.300      0.99709809
       14906.330      0.99707234
       14906.360      0.99704175
       14906.390      0.99700622
       14906.420      0.99696564
       14906.450      0.99691992
       14906.480      0.99686892
       14906.510      0.99681245
       14906.540      0.99675018
       14906.570      0.99668151
       14906.600      0.99660550
       14906.630      0.99652098
       14906.660      0.99642667
       14906.690      0.99632126
       14906.720      0.99620346
       14906.750      0.99607215
       14906.780      0.99592657
       14906.810      0.99576681
       14906.840      0.99559448
       14906.870      0.99541318
       14906.900      0.99522778
       14906.930      0.99504383
       14906.960      0.99486713
       14906.990      0.99470342
       14907.020      0.99455807
       14907.050      0.99443544
       14907.080      0.99433764
       14907.110      0.99426263
       14907.140      0.99420329
       14907.170      0.99414922
       14907.200      0.99408881
       14907.230      0.99401064
       14907.260      0.99390417
       14907.290      0.99375972
       14907.320      0.99356842
       14907.350      0.99332240
       14907.380      0.99301442
       14907.410      0.99263645
       14907.440      0.99217765
       14907.470      0.99162185
       14907.500      0.99094660
       14907.530      0.99012270
       14907.560      0.98911068
       14907.590      0.98785306
       14907.620      0.98626352
       14907.650      0.98420794
       14907.680      0.98147030
       14907.710      0.97768628
       14907.740      0.97223567
       14907.770      0.96409502
       14907.800      0.95170778
       14907.830      0.93306931
       14907.860      0.90641342
       14907.890      0.87182854
       14907.920      0.83308880
       14907.950      0.79759375
       14907.980      0.77354037
       14908.010      0.76662800
       14908.040      0.77846582
       14908.070      0.80629832
       14908.100      0.84352807
       14908.130      0.88180929
       14908.160      0.91452277
       14908.190      0.93898837
       14908.220      0.95581022
       14908.250      0.96693547
       14908.280      0.97428373
       14908.310      0.97926369
       14908.340      0.98277633
       14908.370      0.98536098
       14908.400      0.98733363
       14908.430      0.98888433
       14908.460      0.99013233
       14908.490      0.99115508
       14908.520      0.99200552
       14908.550      0.99272116
       14908.580      0.99332944
       14908.610      0.99385123
       14908.640      0.99430243
       14908.670      0.99469515
       14908.700      0.99503887
       14908.730      0.99534110
       14908.760      0.99560798
       14908.790      0.99584478
       14908.820      0.99605604
       14908.850      0.99624514
       14908.880      0.99641361
       14908.910      0.99656083
       14908.940      0.99668484
       14908.970      0.99678293
       14909.000      0.99685136
       14909.030      0.99688285
       14909.060      0.99685851
       14909.090      0.99672665
       14909.120      0.99636442
       14909.150      0.99554084
       14909.180      0.99392958
       14909.210      0.99116621
       14909.240      0.98704426
       14909.270      0.98192774
       14909.300      0.97702158
       14909.330      0.97403773
       14909.360      0.97422867
       14909.390      0.97749401
       14909.420      0.98248717
       14909.450      0.98761503
       14909.480      0.99179229
       14909.510      0.99461473
       14909.540      0.99628726
       14909.570      0.99720653
       14909.600      0.99769631
       14909.630      0.99796476
       14909.660      0.99812453
       14909.690      0.99822966
       14909.720      0.99830539
       14909.750      0.99836442
       14909.780      0.99841382
       14909.810      0.99845741
       14909.840      0.99849699
       14909.870      0.99853335
       14909.900      0.99856685
       14909.930      0.99859772
       14909.960      0.99862616
       14909.990      0.99865237
       14910.020      0.99867659
       14910.050      0.99869904
       14910.080      0.99871994
       14910.110      0.99873954
       14910.140      0.99875804
       14910.170      0.99877564
       14910.200      0.99879249
       14910.230      0.99880870
       14910.260      0.99882429
       14910.290      0.99883928
       14910.320      0.99885369
       14910.350      0.99886751
       14910.380      0.99888074
       14910.410      0.99889338
       14910.440      0.99890543
       14910.470      0.99891692
       14910.500      0.99892785
       14910.530      0.99893827
       14910.560      0.99894823
       14910.590      0.99895776
       14910.620      0.99896691
       14910.650      0.99897574
       14910.680      0.99898427
       14910.710      0.99899253
       14910.740      0.99900053
       14910.770      0.99900821
       14910.800      0.99901547
       14910.830      0.99902216
       14910.860      0.99902814
       14910.890      0.99903326
       14910.920      0.99903737
       14910.950      0.99904035
       14910.980      0.99904212
       14911.010      0.99904270
       14911.040      0.99904228
       14911.070      0.99904127
       14911.100      0.99904000
       14911.130      0.99903838
       14911.160      0.99903522
       14911.190      0.99902713
       14911.220      0.99900774
       14911.250      0.99896549
       14911.280      0.99887661
       14911.310      0.99869040
       14911.340      0.99830277
       14911.370      0.99750945
       14911.400      0.99597467
       14911.430      0.99337262
       14911.460      0.98968819
       14911.490      0.98543304
       14911.520      0.98165788
       14911.550      0.97970686
       14911.580      0.98044323
       14911.610      0.98352682
       14911.640      0.98773110
       14911.670      0.99179151
       14911.700      0.99491360
       14911.730      0.99690072
       14911.760      0.99800677
       14911.790      0.99856529
       14911.820      0.99883004
       14911.850      0.99895354
       14911.880      0.99901274
       14911.910      0.99904247
       14911.940      0.99905814
       14911.970      0.99906695
       14912.000      0.99907238
       14912.030      0.99907590
       14912.060      0.99907797
       14912.090      0.99907867
       14912.120      0.99907795
       14912.150      0.99907579
       14912.180      0.99907220
       14912.210      0.99906725
       14912.240      0.99906100
       14912.270      0.99905353
       14912.300      0.99904493
       14912.330      0.99903524
       14912.360      0.99902451
       14912.390      0.99901272
       14912.420      0.99899977
       14912.450      0.99898550
       14912.480      0.99896972
       14912.510      0.99895223
       14912.540      0.99893282
       14912.570      0.99891126
       14912.600      0.99888735
       14912.630      0.99886087
       14912.660      0.99883158
       14912.690      0.99879925
       14912.720      0.99876365
       14912.750      0.99872451
       14912.780      0.99868159
       14912.810      0.99863461
       14912.840      0.99858323
       14912.870      0.99852700
       14912.900      0.99846513
       14912.930      0.99839623
       14912.960      0.99831813
       14912.990      0.99822801
       14913.020      0.99812275
       14913.050      0.99799904
       14913.080      0.99785344
       14913.110      0.99768223
       14913.140      0.99748102
       14913.170      0.99724390
       14913.200      0.99696175
       14913.230      0.99662034
       14913.260      0.99619853
       14913.290      0.99566478
       14913.320      0.99496987
       14913.350      0.99402927
       14913.380      0.99268374
       14913.410      0.99061841
       14913.440      0.98722588
       14913.470      0.98139238
       14913.500      0.97123736
       14913.530      0.95409575
       14913.560      0.92730224
       14913.590      0.89033742
       14913.620      0.84741468
       14913.650      0.80739724
       14913.680      0.77994587
       14913.710      0.77153701
       14913.740      0.78404672
       14913.770      0.81465596
       14913.800      0.85605574
       14913.830      0.89836567
       14913.860      0.93343480
       14913.890      0.95812402
       14913.920      0.97361033
       14913.950      0.98268502
       14913.980      0.98788159
       14914.010      0.99091422
       14914.040      0.99277825
       14914.070      0.99400376
       14914.100      0.99486499
       14914.130      0.99550346
       14914.160      0.99599222
       14914.190      0.99637066
       14914.220      0.99666345
       14914.250      0.99688923
       14914.280      0.99706372
       14914.310      0.99720020
       14914.340      0.99730842
       14914.370      0.99739393
       14914.400      0.99745943
       14914.430      0.99750611
       14914.460      0.99753452
       14914.490      0.99754489
       14914.520      0.99753733
       14914.550      0.99751177
       14914.580      0.99746800
       14914.610      0.99740567
       14914.640      0.99732422
       14914.670      0.99722262
       14914.700      0.99709874
       14914.730      0.99694839
       14914.760      0.99676429
       14914.790      0.99653656
       14914.820      0.99625353
       14914.850      0.99590170
       14914.880      0.99546408
       14914.910      0.99491593
       14914.940      0.99421652
       14914.970      0.99329830
       14915.000      0.99205473
       14915.030      0.99032339
       14915.060      0.98786542
       14915.090      0.98435966
       14915.120      0.97943476
       14915.150      0.97276034
       14915.180      0.96418044
       14915.210      0.95378421
       14915.240      0.94174318
       14915.270      0.92783096
       14915.300      0.91089346
       14915.330      0.88911778
       14915.360      0.86173579
       14915.390      0.83159197
       14915.420      0.80566206
       14915.450      0.79201362
       14915.480      0.79594626
       14915.510      0.81788567
       14915.540      0.85296549
       14915.570      0.89245244
       14915.600      0.92762107
       14915.630      0.95373466
       14915.660      0.97071094
       14915.690      0.98086457
       14915.720      0.98672696
       14915.750      0.99014578
       14915.780      0.99223581
       14915.810      0.99361040
       14915.840      0.99458244
       14915.870      0.99530983
       14915.900      0.99587681
       14915.930      0.99633270
       14915.960      0.99670837
       14915.990      0.99702381
       14916.020      0.99729156
       14916.050      0.99751982
       14916.080      0.99771464
       14916.110      0.99788118
       14916.140      0.99802422
       14916.170      0.99814825
       14916.200      0.99825741
       14916.230      0.99835514
       14916.260      0.99844381
       14916.290      0.99852485
       14916.320      0.99859920
       14916.350      0.99866750
       14916.380      0.99873032
       14916.410      0.99878818
       14916.440      0.99884154
       14916.470      0.99889085
       14916.500      0.99893646
       14916.530      0.99897866
       14916.560      0.99901765
       14916.590      0.99905365
       14916.620      0.99908686
       14916.650      0.99911745
       14916.680      0.99914562
       14916.710      0.99917155
       14916.740      0.99919543
       14916.770      0.99921744
       14916.800      0.99923778
       14916.830      0.99925663
       14916.860      0.99927418
       14916.890      0.99929061
       14916.920      0.99930608
       14916.950      0.99932078
       14916.980      0.99933481
       14917.010      0.99934826
       14917.040      0.99936117
       14917.070      0.99937358
       14917.100      0.99938548
       14917.130      0.99939689
       14917.160      0.99940783
       14917.190      0.99941830
       14917.220      0.99942830
       14917.250      0.99943786
       14917.280      0.99944697
       14917.310      0.99945564
       14917.340      0.99946390
       14917.370      0.99947173
       14917.400      0.99947916
       14917.430      0.99948619
       14917.460      0.99949283
       14917.490      0.99949910
       14917.520      0.99950500
       14917.550      0.99951055
       14917.580      0.99951577
       14917.610      0.99952066
       14917.640      0.99952524
       14917.670      0.99952953
       14917.700      0.99953354
       14917.730      0.99953729
       14917.760      0.99954078
       14917.790      0.99954404
       14917.820      0.99954707
       14917.850      0.99954989
       14917.880      0.99955252
       14917.910      0.99955496
       14917.940      0.99955722
       14917.970      0.99955930
       14918.000      0.99956117
       14918.030      0.99956279
       14918.060      0.99956413
       14918.090      0.99956514
       14918.120      0.99956576
