 #      wave           flux
       22900.000      0.99992862
       22900.040      0.99993053
       22900.080      0.99993121
       22900.120      0.99993122
       22900.160      0.99993088
       22900.200      0.99993039
       22900.240      0.99992984
       22900.280      0.99992926
       22900.320      0.99992867
       22900.360      0.99992808
       22900.400      0.99992749
       22900.440      0.99992690
       22900.480      0.99992630
       22900.520      0.99992570
       22900.560      0.99992511
       22900.600      0.99992451
       22900.640      0.99992390
       22900.680      0.99992330
       22900.720      0.99992269
       22900.760      0.99992209
       22900.800      0.99992148
       22900.840      0.99992086
       22900.880      0.99992025
       22900.920      0.99991963
       22900.960      0.99991901
       22901.000      0.99991838
       22901.040      0.99991776
       22901.080      0.99991712
       22901.120      0.99991649
       22901.160      0.99991585
       22901.200      0.99991521
       22901.240      0.99991457
       22901.280      0.99991392
       22901.320      0.99991326
       22901.360      0.99991261
       22901.400      0.99991195
       22901.440      0.99991128
       22901.480      0.99991061
       22901.520      0.99990994
       22901.560      0.99990926
       22901.600      0.99990857
       22901.640      0.99990788
       22901.680      0.99990719
       22901.720      0.99990649
       22901.760      0.99990578
       22901.800      0.99990507
       22901.840      0.99990436
       22901.880      0.99990363
       22901.920      0.99990291
       22901.960      0.99990217
       22902.000      0.99990143
       22902.040      0.99990069
       22902.080      0.99989993
       22902.120      0.99989917
       22902.160      0.99989841
       22902.200      0.99989764
       22902.240      0.99989686
       22902.280      0.99989607
       22902.320      0.99989528
       22902.360      0.99989448
       22902.400      0.99989367
       22902.440      0.99989285
       22902.480      0.99989203
       22902.520      0.99989120
       22902.560      0.99989036
       22902.600      0.99988951
       22902.640      0.99988866
       22902.680      0.99988779
       22902.720      0.99988692
       22902.760      0.99988604
       22902.800      0.99988515
       22902.840      0.99988425
       22902.880      0.99988335
       22902.920      0.99988243
       22902.960      0.99988151
       22903.000      0.99988057
       22903.040      0.99987963
       22903.080      0.99987867
       22903.120      0.99987770
       22903.160      0.99987672
       22903.200      0.99987573
       22903.240      0.99987472
       22903.280      0.99987370
       22903.320      0.99987266
       22903.360      0.99987161
       22903.400      0.99987054
       22903.440      0.99986946
       22903.480      0.99986835
       22903.520      0.99986723
       22903.560      0.99986609
       22903.600      0.99986493
       22903.640      0.99986375
       22903.680      0.99986255
       22903.720      0.99986133
       22903.760      0.99986009
       22903.800      0.99985882
       22903.840      0.99985753
       22903.880      0.99985622
       22903.920      0.99985488
       22903.960      0.99985351
       22904.000      0.99985212
       22904.040      0.99985071
       22904.080      0.99984926
       22904.120      0.99984779
       22904.160      0.99984629
       22904.200      0.99984476
       22904.240      0.99984320
       22904.280      0.99984161
       22904.320      0.99983999
       22904.360      0.99983834
       22904.400      0.99983665
       22904.440      0.99983493
       22904.480      0.99983318
       22904.520      0.99983139
       22904.560      0.99982957
       22904.600      0.99982771
       22904.640      0.99982581
       22904.680      0.99982388
       22904.720      0.99982191
       22904.760      0.99981990
       22904.800      0.99981785
       22904.840      0.99981577
       22904.880      0.99981364
       22904.920      0.99981147
       22904.960      0.99980926
       22905.000      0.99980701
       22905.040      0.99980471
       22905.080      0.99980237
       22905.120      0.99979999
       22905.160      0.99979756
       22905.200      0.99979509
       22905.240      0.99979257
       22905.280      0.99979000
       22905.320      0.99978738
       22905.360      0.99978472
       22905.400      0.99978201
       22905.440      0.99977925
       22905.480      0.99977644
       22905.520      0.99977357
       22905.560      0.99977066
       22905.600      0.99976769
       22905.640      0.99976468
       22905.680      0.99976160
       22905.720      0.99975848
       22905.760      0.99975530
       22905.800      0.99975206
       22905.840      0.99974877
       22905.880      0.99974542
       22905.920      0.99974201
       22905.960      0.99973854
       22906.000      0.99973501
       22906.040      0.99973142
       22906.080      0.99972776
       22906.120      0.99972404
       22906.160      0.99972025
       22906.200      0.99971639
       22906.240      0.99971246
       22906.280      0.99970845
       22906.320      0.99970438
       22906.360      0.99970023
       22906.400      0.99969600
       22906.440      0.99969169
       22906.480      0.99968730
       22906.520      0.99968284
       22906.560      0.99967828
       22906.600      0.99967365
       22906.640      0.99966892
       22906.680      0.99966411
       22906.720      0.99965921
       22906.760      0.99965422
       22906.800      0.99964913
       22906.840      0.99964395
       22906.880      0.99963868
       22906.920      0.99963331
       22906.960      0.99962783
       22907.000      0.99962226
       22907.040      0.99961659
       22907.080      0.99961081
       22907.120      0.99960492
       22907.160      0.99959893
       22907.200      0.99959283
       22907.240      0.99958662
       22907.280      0.99958030
       22907.320      0.99957385
       22907.360      0.99956728
       22907.400      0.99956057
       22907.440      0.99955371
       22907.480      0.99954668
       22907.520      0.99953947
       22907.560      0.99953207
       22907.600      0.99952445
       22907.640      0.99951660
       22907.680      0.99950851
       22907.720      0.99950015
       22907.760      0.99949152
       22907.800      0.99948260
       22907.840      0.99947336
       22907.880      0.99946381
       22907.920      0.99945391
       22907.960      0.99944365
       22908.000      0.99943302
       22908.040      0.99942201
       22908.080      0.99941059
       22908.120      0.99939875
       22908.160      0.99938647
       22908.200      0.99937374
       22908.240      0.99936054
       22908.280      0.99934686
       22908.320      0.99933268
       22908.360      0.99931798
       22908.400      0.99930275
       22908.440      0.99928697
       22908.480      0.99927063
       22908.520      0.99925371
       22908.560      0.99923619
       22908.600      0.99921806
       22908.640      0.99919931
       22908.680      0.99917990
       22908.720      0.99915983
       22908.760      0.99913908
       22908.800      0.99911761
       22908.840      0.99909540
       22908.880      0.99907238
       22908.920      0.99904853
       22908.960      0.99902377
       22909.000      0.99899807
       22909.040      0.99897137
       22909.080      0.99894360
       22909.120      0.99891472
       22909.160      0.99888467
       22909.200      0.99885341
       22909.240      0.99882086
       22909.280      0.99878699
       22909.320      0.99875172
       22909.360      0.99871502
       22909.400      0.99867681
       22909.440      0.99863703
       22909.480      0.99859560
       22909.520      0.99855240
       22909.560      0.99850726
       22909.600      0.99845999
       22909.640      0.99841032
       22909.680      0.99835799
       22909.720      0.99830272
       22909.760      0.99824422
       22909.800      0.99818221
       22909.840      0.99811640
       22909.880      0.99804651
       22909.920      0.99797224
       22909.960      0.99789333
       22910.000      0.99780946
       22910.040      0.99772037
       22910.080      0.99762575
       22910.120      0.99752530
       22910.160      0.99741870
       22910.200      0.99730556
       22910.240      0.99718541
       22910.280      0.99705759
       22910.320      0.99692123
       22910.360      0.99677530
       22910.400      0.99661869
       22910.440      0.99645021
       22910.480      0.99626865
       22910.520      0.99607274
       22910.560      0.99586118
       22910.600      0.99563250
       22910.640      0.99538501
       22910.680      0.99511672
       22910.720      0.99482536
       22910.760      0.99450852
       22910.800      0.99416373
       22910.840      0.99378840
       22910.880      0.99337987
       22910.920      0.99293526
       22910.960      0.99245124
       22911.000      0.99192378
       22911.040      0.99134785
       22911.080      0.99071759
       22911.120      0.99002661
       22911.160      0.98926843
       22911.200      0.98843673
       22911.240      0.98752607
       22911.280      0.98653308
       22911.320      0.98545873
       22911.360      0.98431183
       22911.400      0.98311278
       22911.440      0.98189334
       22911.480      0.98069345
       22911.520      0.97955868
       22911.560      0.97853882
       22911.600      0.97768610
       22911.640      0.97705050
       22911.680      0.97667332
       22911.720      0.97657831
       22911.760      0.97676171
       22911.800      0.97719244
       22911.840      0.97782222
       22911.880      0.97859438
       22911.920      0.97944964
       22911.960      0.98033057
       22912.000      0.98118636
       22912.040      0.98197717
       22912.080      0.98267358
       22912.120      0.98325253
       22912.160      0.98369422
       22912.200      0.98398029
       22912.240      0.98409279
       22912.280      0.98401361
       22912.320      0.98372471
       22912.360      0.98321056
       22912.400      0.98246236
       22912.440      0.98148263
       22912.480      0.98028945
       22912.520      0.97891944
       22912.560      0.97742813
       22912.600      0.97588747
       22912.640      0.97437914
       22912.680      0.97298649
       22912.720      0.97178699
       22912.760      0.97084578
       22912.800      0.97021033
       22912.840      0.96990809
       22912.880      0.96994622
       22912.920      0.97031374
       22912.960      0.97098520
       22913.000      0.97192619
       22913.040      0.97309656
       22913.080      0.97445088
       22913.120      0.97593868
       22913.160      0.97750570
       22913.200      0.97909825
       22913.240      0.98066893
       22913.280      0.98218007
       22913.320      0.98360519
       22913.360      0.98492987
       22913.400      0.98614888
       22913.440      0.98726268
       22913.480      0.98827506
       22913.520      0.98919193
       22913.560      0.99002056
       22913.600      0.99076883
       22913.640      0.99144476
       22913.680      0.99205607
       22913.720      0.99260980
       22913.760      0.99311211
       22913.800      0.99356848
       22913.840      0.99398388
       22913.880      0.99436272
       22913.920      0.99470878
       22913.960      0.99502512
       22914.000      0.99531438
       22914.040      0.99557891
       22914.080      0.99582096
       22914.120      0.99604270
       22914.160      0.99624624
       22914.200      0.99643365
       22914.240      0.99660685
       22914.280      0.99676755
       22914.320      0.99691710
       22914.360      0.99705656
       22914.400      0.99718676
       22914.440      0.99730843
       22914.480      0.99742224
       22914.520      0.99752884
       22914.560      0.99762885
       22914.600      0.99772288
       22914.640      0.99781148
       22914.680      0.99789512
       22914.720      0.99797417
       22914.760      0.99804893
       22914.800      0.99811960
       22914.840      0.99818640
       22914.880      0.99824950
       22914.920      0.99830909
       22914.960      0.99836534
       22915.000      0.99841843
       22915.040      0.99846855
       22915.080      0.99851585
       22915.120      0.99856053
       22915.160      0.99860275
       22915.200      0.99864270
       22915.240      0.99868054
       22915.280      0.99871646
       22915.320      0.99875063
       22915.360      0.99878321
       22915.400      0.99881437
       22915.440      0.99884424
       22915.480      0.99887294
       22915.520      0.99890053
       22915.560      0.99892707
       22915.600      0.99895262
       22915.640      0.99897719
       22915.680      0.99900083
       22915.720      0.99902356
       22915.760      0.99904543
       22915.800      0.99906646
       22915.840      0.99908668
       22915.880      0.99910613
       22915.920      0.99912484
       22915.960      0.99914284
       22916.000      0.99916016
       22916.040      0.99917684
       22916.080      0.99919290
       22916.120      0.99920837
       22916.160      0.99922330
       22916.200      0.99923770
       22916.240      0.99925160
       22916.280      0.99926501
       22916.320      0.99927797
       22916.360      0.99929046
       22916.400      0.99930252
       22916.440      0.99931415
       22916.480      0.99932535
       22916.520      0.99933615
       22916.560      0.99934655
       22916.600      0.99935656
       22916.640      0.99936619
       22916.680      0.99937546
       22916.720      0.99938437
       22916.760      0.99939293
       22916.800      0.99940116
       22916.840      0.99940907
       22916.880      0.99941666
       22916.920      0.99942395
       22916.960      0.99943093
       22917.000      0.99943763
       22917.040      0.99944404
       22917.080      0.99945015
       22917.120      0.99945597
       22917.160      0.99946148
       22917.200      0.99946668
       22917.240      0.99947156
       22917.280      0.99947611
       22917.320      0.99948031
       22917.360      0.99948418
       22917.400      0.99948768
       22917.440      0.99949083
       22917.480      0.99949360
       22917.520      0.99949599
       22917.560      0.99949799
       22917.600      0.99949960
       22917.640      0.99950080
       22917.680      0.99950158
       22917.720      0.99950193
       22917.760      0.99950184
       22917.800      0.99950127
       22917.840      0.99950021
       22917.880      0.99949860
       22917.920      0.99949640
       22917.960      0.99949357
       22918.000      0.99949004
       22918.040      0.99948577
       22918.080      0.99948069
       22918.120      0.99947469
       22918.160      0.99946765
       22918.200      0.99945936
       22918.240      0.99944951
       22918.280      0.99943773
       22918.320      0.99942363
       22918.360      0.99940678
       22918.400      0.99938675
       22918.440      0.99936306
       22918.480      0.99933519
       22918.520      0.99930253
       22918.560      0.99926423
       22918.600      0.99921909
       22918.640      0.99916549
       22918.680      0.99910131
       22918.720      0.99902365
       22918.760      0.99892841
       22918.800      0.99880965
       22918.840      0.99865951
       22918.880      0.99846843
       22918.920      0.99822505
       22918.960      0.99791569
       22919.000      0.99752430
       22919.040      0.99703525
       22919.080      0.99643927
       22919.120      0.99574253
       22919.160      0.99497958
       22919.200      0.99422260
       22919.240      0.99357041
       22919.280      0.99312569
       22919.320      0.99296952
       22919.360      0.99313256
       22919.400      0.99357801
       22919.440      0.99422159
       22919.480      0.99496495
       22919.520      0.99572119
       22919.560      0.99642444
       22919.600      0.99703348
       22919.640      0.99753435
       22919.680      0.99793399
       22919.720      0.99824912
       22919.760      0.99849755
       22919.800      0.99869450
       22919.840      0.99885207
       22919.880      0.99897928
       22919.920      0.99908257
       22919.960      0.99916678
       22920.000      0.99923588
       22920.040      0.99929326
       22920.080      0.99934175
       22920.120      0.99938349
       22920.160      0.99941994
       22920.200      0.99945202
       22920.240      0.99948044
       22920.280      0.99950570
       22920.320      0.99952825
       22920.360      0.99954844
       22920.400      0.99956653
       22920.440      0.99958275
       22920.480      0.99959727
       22920.520      0.99961026
       22920.560      0.99962188
       22920.600      0.99963229
       22920.640      0.99964163
       22920.680      0.99965006
       22920.720      0.99965773
       22920.760      0.99966479
       22920.800      0.99967135
       22920.840      0.99967754
       22920.880      0.99968342
       22920.920      0.99968903
       22920.960      0.99969439
       22921.000      0.99969952
       22921.040      0.99970443
       22921.080      0.99970912
       22921.120      0.99971359
       22921.160      0.99971785
       22921.200      0.99972190
       22921.240      0.99972575
       22921.280      0.99972940
       22921.320      0.99973285
       22921.360      0.99973611
       22921.400      0.99973919
       22921.440      0.99974210
       22921.480      0.99974483
       22921.520      0.99974741
       22921.560      0.99974982
       22921.600      0.99975210
       22921.640      0.99975423
       22921.680      0.99975623
       22921.720      0.99975810
       22921.760      0.99975986
       22921.800      0.99976150
       22921.840      0.99976305
       22921.880      0.99976449
       22921.920      0.99976585
       22921.960      0.99976713
       22922.000      0.99976834
       22922.040      0.99976948
       22922.080      0.99977056
       22922.120      0.99977159
       22922.160      0.99977258
       22922.200      0.99977353
       22922.240      0.99977445
       22922.280      0.99977535
       22922.320      0.99977623
       22922.360      0.99977710
       22922.400      0.99977795
       22922.440      0.99977879
       22922.480      0.99977962
       22922.520      0.99978044
       22922.560      0.99978124
       22922.600      0.99978203
       22922.640      0.99978281
       22922.680      0.99978357
       22922.720      0.99978431
       22922.760      0.99978504
       22922.800      0.99978576
       22922.840      0.99978645
       22922.880      0.99978713
       22922.920      0.99978779
       22922.960      0.99978843
       22923.000      0.99978905
       22923.040      0.99978965
       22923.080      0.99979023
       22923.120      0.99979078
       22923.160      0.99979132
       22923.200      0.99979183
       22923.240      0.99979231
       22923.280      0.99979278
       22923.320      0.99979322
       22923.360      0.99979363
       22923.400      0.99979402
       22923.440      0.99979438
       22923.480      0.99979472
       22923.520      0.99979504
       22923.560      0.99979534
       22923.600      0.99979561
       22923.640      0.99979586
       22923.680      0.99979609
       22923.720      0.99979630
       22923.760      0.99979648
       22923.800      0.99979665
       22923.840      0.99979680
       22923.880      0.99979693
       22923.920      0.99979704
       22923.960      0.99979713
       22924.000      0.99979720
       22924.040      0.99979726
       22924.080      0.99979729
       22924.120      0.99979731
       22924.160      0.99979732
