 #      wave           flux
       22900.000      0.99995446
       22900.040      0.99995648
       22900.080      0.99995729
       22900.120      0.99995744
       22900.160      0.99995725
       22900.200      0.99995692
       22900.240      0.99995652
       22900.280      0.99995610
       22900.320      0.99995567
       22900.360      0.99995523
       22900.400      0.99995480
       22900.440      0.99995436
       22900.480      0.99995393
       22900.520      0.99995349
       22900.560      0.99995305
       22900.600      0.99995261
       22900.640      0.99995217
       22900.680      0.99995173
       22900.720      0.99995128
       22900.760      0.99995084
       22900.800      0.99995039
       22900.840      0.99994994
       22900.880      0.99994949
       22900.920      0.99994904
       22900.960      0.99994859
       22901.000      0.99994813
       22901.040      0.99994768
       22901.080      0.99994722
       22901.120      0.99994676
       22901.160      0.99994629
       22901.200      0.99994583
       22901.240      0.99994536
       22901.280      0.99994489
       22901.320      0.99994442
       22901.360      0.99994394
       22901.400      0.99994346
       22901.440      0.99994298
       22901.480      0.99994250
       22901.520      0.99994201
       22901.560      0.99994152
       22901.600      0.99994103
       22901.640      0.99994053
       22901.680      0.99994003
       22901.720      0.99993953
       22901.760      0.99993902
       22901.800      0.99993852
       22901.840      0.99993800
       22901.880      0.99993749
       22901.920      0.99993697
       22901.960      0.99993644
       22902.000      0.99993591
       22902.040      0.99993538
       22902.080      0.99993485
       22902.120      0.99993431
       22902.160      0.99993376
       22902.200      0.99993322
       22902.240      0.99993266
       22902.280      0.99993211
       22902.320      0.99993155
       22902.360      0.99993098
       22902.400      0.99993041
       22902.440      0.99992983
       22902.480      0.99992925
       22902.520      0.99992867
       22902.560      0.99992808
       22902.600      0.99992748
       22902.640      0.99992688
       22902.680      0.99992628
       22902.720      0.99992567
       22902.760      0.99992505
       22902.800      0.99992443
       22902.840      0.99992381
       22902.880      0.99992317
       22902.920      0.99992254
       22902.960      0.99992189
       22903.000      0.99992124
       22903.040      0.99992058
       22903.080      0.99991992
       22903.120      0.99991925
       22903.160      0.99991857
       22903.200      0.99991789
       22903.240      0.99991719
       22903.280      0.99991649
       22903.320      0.99991578
       22903.360      0.99991505
       22903.400      0.99991432
       22903.440      0.99991358
       22903.480      0.99991283
       22903.520      0.99991206
       22903.560      0.99991129
       22903.600      0.99991050
       22903.640      0.99990970
       22903.680      0.99990889
       22903.720      0.99990806
       22903.760      0.99990723
       22903.800      0.99990637
       22903.840      0.99990551
       22903.880      0.99990463
       22903.920      0.99990373
       22903.960      0.99990282
       22904.000      0.99990190
       22904.040      0.99990095
       22904.080      0.99989999
       22904.120      0.99989902
       22904.160      0.99989803
       22904.200      0.99989702
       22904.240      0.99989599
       22904.280      0.99989494
       22904.320      0.99989388
       22904.360      0.99989279
       22904.400      0.99989169
       22904.440      0.99989057
       22904.480      0.99988942
       22904.520      0.99988826
       22904.560      0.99988707
       22904.600      0.99988587
       22904.640      0.99988464
       22904.680      0.99988339
       22904.720      0.99988211
       22904.760      0.99988082
       22904.800      0.99987950
       22904.840      0.99987816
       22904.880      0.99987679
       22904.920      0.99987540
       22904.960      0.99987398
       22905.000      0.99987254
       22905.040      0.99987107
       22905.080      0.99986958
       22905.120      0.99986806
       22905.160      0.99986652
       22905.200      0.99986494
       22905.240      0.99986334
       22905.280      0.99986172
       22905.320      0.99986006
       22905.360      0.99985837
       22905.400      0.99985666
       22905.440      0.99985492
       22905.480      0.99985314
       22905.520      0.99985134
       22905.560      0.99984951
       22905.600      0.99984764
       22905.640      0.99984574
       22905.680      0.99984382
       22905.720      0.99984186
       22905.760      0.99983986
       22905.800      0.99983784
       22905.840      0.99983578
       22905.880      0.99983368
       22905.920      0.99983156
       22905.960      0.99982939
       22906.000      0.99982719
       22906.040      0.99982494
       22906.080      0.99982266
       22906.120      0.99982033
       22906.160      0.99981796
       22906.200      0.99981555
       22906.240      0.99981308
       22906.280      0.99981057
       22906.320      0.99980801
       22906.360      0.99980539
       22906.400      0.99980273
       22906.440      0.99980000
       22906.480      0.99979722
       22906.520      0.99979439
       22906.560      0.99979149
       22906.600      0.99978853
       22906.640      0.99978551
       22906.680      0.99978243
       22906.720      0.99977928
       22906.760      0.99977606
       22906.800      0.99977278
       22906.840      0.99976942
       22906.880      0.99976600
       22906.920      0.99976249
       22906.960      0.99975892
       22907.000      0.99975527
       22907.040      0.99975154
       22907.080      0.99974773
       22907.120      0.99974384
       22907.160      0.99973986
       22907.200      0.99973581
       22907.240      0.99973166
       22907.280      0.99972743
       22907.320      0.99972311
       22907.360      0.99971868
       22907.400      0.99971416
       22907.440      0.99970952
       22907.480      0.99970476
       22907.520      0.99969986
       22907.560      0.99969483
       22907.600      0.99968965
       22907.640      0.99968430
       22907.680      0.99967879
       22907.720      0.99967309
       22907.760      0.99966721
       22907.800      0.99966112
       22907.840      0.99965483
       22907.880      0.99964831
       22907.920      0.99964157
       22907.960      0.99963459
       22908.000      0.99962735
       22908.040      0.99961986
       22908.080      0.99961210
       22908.120      0.99960406
       22908.160      0.99959574
       22908.200      0.99958711
       22908.240      0.99957818
       22908.280      0.99956892
       22908.320      0.99955935
       22908.360      0.99954943
       22908.400      0.99953916
       22908.440      0.99952854
       22908.480      0.99951755
       22908.520      0.99950619
       22908.560      0.99949444
       22908.600      0.99948229
       22908.640      0.99946973
       22908.680      0.99945676
       22908.720      0.99944335
       22908.760      0.99942951
       22908.800      0.99941520
       22908.840      0.99940041
       22908.880      0.99938512
       22908.920      0.99936928
       22908.960      0.99935286
       22909.000      0.99933584
       22909.040      0.99931817
       22909.080      0.99929983
       22909.120      0.99928078
       22909.160      0.99926098
       22909.200      0.99924041
       22909.240      0.99921902
       22909.280      0.99919678
       22909.320      0.99917366
       22909.360      0.99914962
       22909.400      0.99912462
       22909.440      0.99909861
       22909.480      0.99907154
       22909.520      0.99904329
       22909.560      0.99901373
       22909.600      0.99898266
       22909.640      0.99894983
       22909.680      0.99891499
       22909.720      0.99887787
       22909.760      0.99883820
       22909.800      0.99879570
       22909.840      0.99875010
       22909.880      0.99870111
       22909.920      0.99864847
       22909.960      0.99859190
       22910.000      0.99853111
       22910.040      0.99846584
       22910.080      0.99839579
       22910.120      0.99832069
       22910.160      0.99824023
       22910.200      0.99815406
       22910.240      0.99806176
       22910.280      0.99796279
       22910.320      0.99785644
       22910.360      0.99774190
       22910.400      0.99761826
       22910.440      0.99748458
       22910.480      0.99733983
       22910.520      0.99718289
       22910.560      0.99701237
       22910.600      0.99682641
       22910.640      0.99662232
       22910.680      0.99639631
       22910.720      0.99614369
       22910.760      0.99585924
       22910.800      0.99553740
       22910.840      0.99517235
       22910.880      0.99475789
       22910.920      0.99428705
       22910.960      0.99375141
       22911.000      0.99313981
       22911.040      0.99243699
       22911.080      0.99162356
       22911.120      0.99067645
       22911.160      0.98956879
       22911.200      0.98826947
       22911.240      0.98674312
       22911.280      0.98495130
       22911.320      0.98285553
       22911.360      0.98042660
       22911.400      0.97765914
       22911.440      0.97458521
       22911.480      0.97128796
       22911.520      0.96791291
       22911.560      0.96467315
       22911.600      0.96184133
       22911.640      0.95970754
       22911.680      0.95851992
       22911.720      0.95842522
       22911.760      0.95942198
       22911.800      0.96136061
       22911.840      0.96398818
       22911.880      0.96700820
       22911.920      0.97014015
       22911.960      0.97315860
       22912.000      0.97590884
       22912.040      0.97830145
       22912.080      0.98029589
       22912.120      0.98188088
       22912.160      0.98305787
       22912.200      0.98382830
       22912.240      0.98418384
       22912.280      0.98410257
       22912.320      0.98355166
       22912.360      0.98249474
       22912.400      0.98090458
       22912.440      0.97877951
       22912.480      0.97615806
       22912.520      0.97312865
       22912.560      0.96982699
       22912.600      0.96642112
       22912.640      0.96308995
       22912.680      0.96000051
       22912.720      0.95728897
       22912.760      0.95505136
       22912.800      0.95334426
       22912.840      0.95219192
       22912.880      0.95159908
       22912.920      0.95156810
       22912.960      0.95211066
       22913.000      0.95324739
       22913.040      0.95499502
       22913.080      0.95734307
       22913.120      0.96023007
       22913.160      0.96353074
       22913.200      0.96707376
       22913.240      0.97067389
       22913.280      0.97415982
       22913.320      0.97739815
       22913.360      0.98031039
       22913.400      0.98286606
       22913.440      0.98506851
       22913.480      0.98694313
       22913.520      0.98852726
       22913.560      0.98986251
       22913.600      0.99098939
       22913.640      0.99194364
       22913.680      0.99275540
       22913.720      0.99344981
       22913.760      0.99404765
       22913.800      0.99456599
       22913.840      0.99501878
       22913.880      0.99541718
       22913.920      0.99576970
       22913.960      0.99608257
       22914.000      0.99636054
       22914.040      0.99660758
       22914.080      0.99682729
       22914.120      0.99702305
       22914.160      0.99719815
       22914.200      0.99735571
       22914.240      0.99749867
       22914.280      0.99762949
       22914.320      0.99775007
       22914.360      0.99786170
       22914.400      0.99796530
       22914.440      0.99806159
       22914.480      0.99815117
       22914.520      0.99823463
       22914.560      0.99831250
       22914.600      0.99838530
       22914.640      0.99845352
       22914.680      0.99851756
       22914.720      0.99857775
       22914.760      0.99863433
       22914.800      0.99868751
       22914.840      0.99873746
       22914.880      0.99878434
       22914.920      0.99882833
       22914.960      0.99886957
       22915.000      0.99890822
       22915.040      0.99894445
       22915.080      0.99897841
       22915.120      0.99901026
       22915.160      0.99904016
       22915.200      0.99906827
       22915.240      0.99909474
       22915.280      0.99911972
       22915.320      0.99914339
       22915.360      0.99916587
       22915.400      0.99918733
       22915.440      0.99920787
       22915.480      0.99922759
       22915.520      0.99924656
       22915.560      0.99926481
       22915.600      0.99928238
       22915.640      0.99929929
       22915.680      0.99931556
       22915.720      0.99933122
       22915.760      0.99934628
       22915.800      0.99936076
       22915.840      0.99937468
       22915.880      0.99938807
       22915.920      0.99940095
       22915.960      0.99941333
       22916.000      0.99942523
       22916.040      0.99943668
       22916.080      0.99944770
       22916.120      0.99945830
       22916.160      0.99946850
       22916.200      0.99947832
       22916.240      0.99948779
       22916.280      0.99949691
       22916.320      0.99950569
       22916.360      0.99951416
       22916.400      0.99952231
       22916.440      0.99953016
       22916.480      0.99953772
       22916.520      0.99954500
       22916.560      0.99955201
       22916.600      0.99955876
       22916.640      0.99956527
       22916.680      0.99957153
       22916.720      0.99957757
       22916.760      0.99958338
       22916.800      0.99958900
       22916.840      0.99959441
       22916.880      0.99959964
       22916.920      0.99960469
       22916.960      0.99960956
       22917.000      0.99961427
       22917.040      0.99961882
       22917.080      0.99962319
       22917.120      0.99962738
       22917.160      0.99963137
       22917.200      0.99963516
       22917.240      0.99963873
       22917.280      0.99964208
       22917.320      0.99964518
       22917.360      0.99964802
       22917.400      0.99965060
       22917.440      0.99965290
       22917.480      0.99965491
       22917.520      0.99965661
       22917.560      0.99965799
       22917.600      0.99965904
       22917.640      0.99965975
       22917.680      0.99966010
       22917.720      0.99966009
       22917.760      0.99965970
       22917.800      0.99965893
       22917.840      0.99965776
       22917.880      0.99965620
       22917.920      0.99965424
       22917.960      0.99965189
       22918.000      0.99964913
       22918.040      0.99964595
       22918.080      0.99964235
       22918.120      0.99963826
       22918.160      0.99963361
       22918.200      0.99962823
       22918.240      0.99962187
       22918.280      0.99961422
       22918.320      0.99960492
       22918.360      0.99959360
       22918.400      0.99957988
       22918.440      0.99956336
       22918.480      0.99954362
       22918.520      0.99952017
       22918.560      0.99949240
       22918.600      0.99945946
       22918.640      0.99942018
       22918.680      0.99937280
       22918.720      0.99931454
       22918.760      0.99924074
       22918.800      0.99914371
       22918.840      0.99901210
       22918.880      0.99883018
       22918.920      0.99857561
       22918.960      0.99821531
       22919.000      0.99770137
       22919.040      0.99697277
       22919.080      0.99596478
       22919.120      0.99463556
       22919.160      0.99301794
       22919.200      0.99126442
       22919.240      0.98963571
       22919.280      0.98845228
       22919.320      0.98800580
       22919.360      0.98842375
       22919.400      0.98958337
       22919.440      0.99119051
       22919.480      0.99292321
       22919.520      0.99453965
       22919.560      0.99589965
       22919.600      0.99694892
       22919.640      0.99770400
       22919.680      0.99822561
       22919.720      0.99858539
       22919.760      0.99884060
       22919.800      0.99902772
       22919.840      0.99916842
       22919.880      0.99927570
       22919.920      0.99935784
       22919.960      0.99942081
       22920.000      0.99946945
       22920.040      0.99950791
       22920.080      0.99953965
       22920.120      0.99956709
       22920.160      0.99959163
       22920.200      0.99961394
       22920.240      0.99963430
       22920.280      0.99965281
       22920.320      0.99966951
       22920.360      0.99968443
       22920.400      0.99969766
       22920.440      0.99970931
       22920.480      0.99971952
       22920.520      0.99972842
       22920.560      0.99973617
       22920.600      0.99974292
       22920.640      0.99974881
       22920.680      0.99975400
       22920.720      0.99975863
       22920.760      0.99976285
       22920.800      0.99976677
       22920.840      0.99977051
       22920.880      0.99977412
       22920.920      0.99977764
       22920.960      0.99978107
       22921.000      0.99978441
       22921.040      0.99978766
       22921.080      0.99979081
       22921.120      0.99979385
       22921.160      0.99979677
       22921.200      0.99979955
       22921.240      0.99980220
       22921.280      0.99980469
       22921.320      0.99980704
       22921.360      0.99980922
       22921.400      0.99981126
       22921.440      0.99981314
       22921.480      0.99981488
       22921.520      0.99981648
       22921.560      0.99981795
       22921.600      0.99981930
       22921.640      0.99982054
       22921.680      0.99982167
       22921.720      0.99982270
       22921.760      0.99982364
       22921.800      0.99982449
       22921.840      0.99982527
       22921.880      0.99982598
       22921.920      0.99982663
       22921.960      0.99982722
       22922.000      0.99982777
       22922.040      0.99982829
       22922.080      0.99982877
       22922.120      0.99982923
       22922.160      0.99982967
       22922.200      0.99983010
       22922.240      0.99983054
       22922.280      0.99983097
       22922.320      0.99983142
       22922.360      0.99983188
       22922.400      0.99983236
       22922.440      0.99983285
       22922.480      0.99983336
       22922.520      0.99983387
       22922.560      0.99983440
       22922.600      0.99983493
       22922.640      0.99983547
       22922.680      0.99983601
       22922.720      0.99983655
       22922.760      0.99983709
       22922.800      0.99983764
       22922.840      0.99983818
       22922.880      0.99983871
       22922.920      0.99983924
       22922.960      0.99983975
       22923.000      0.99984026
       22923.040      0.99984075
       22923.080      0.99984123
       22923.120      0.99984169
       22923.160      0.99984213
       22923.200      0.99984255
       22923.240      0.99984295
       22923.280      0.99984333
       22923.320      0.99984368
       22923.360      0.99984401
       22923.400      0.99984431
       22923.440      0.99984458
       22923.480      0.99984483
       22923.520      0.99984505
       22923.560      0.99984526
       22923.600      0.99984543
       22923.640      0.99984559
       22923.680      0.99984572
       22923.720      0.99984582
       22923.760      0.99984591
       22923.800      0.99984598
       22923.840      0.99984602
       22923.880      0.99984604
       22923.920      0.99984605
       22923.960      0.99984603
       22924.000      0.99984600
       22924.040      0.99984595
       22924.080      0.99984587
       22924.120      0.99984579
       22924.160      0.99984568
