 #      wave           flux
       22900.000      0.99994204
       22900.040      0.99994407
       22900.080      0.99994486
       22900.120      0.99994498
       22900.160      0.99994476
       22900.200      0.99994438
       22900.240      0.99994393
       22900.280      0.99994346
       22900.320      0.99994299
       22900.360      0.99994251
       22900.400      0.99994203
       22900.440      0.99994154
       22900.480      0.99994106
       22900.520      0.99994058
       22900.560      0.99994009
       22900.600      0.99993960
       22900.640      0.99993912
       22900.680      0.99993863
       22900.720      0.99993814
       22900.760      0.99993764
       22900.800      0.99993715
       22900.840      0.99993665
       22900.880      0.99993616
       22900.920      0.99993566
       22900.960      0.99993515
       22901.000      0.99993465
       22901.040      0.99993414
       22901.080      0.99993364
       22901.120      0.99993313
       22901.160      0.99993261
       22901.200      0.99993210
       22901.240      0.99993158
       22901.280      0.99993106
       22901.320      0.99993053
       22901.360      0.99993001
       22901.400      0.99992948
       22901.440      0.99992894
       22901.480      0.99992841
       22901.520      0.99992787
       22901.560      0.99992733
       22901.600      0.99992678
       22901.640      0.99992623
       22901.680      0.99992568
       22901.720      0.99992512
       22901.760      0.99992456
       22901.800      0.99992400
       22901.840      0.99992343
       22901.880      0.99992286
       22901.920      0.99992228
       22901.960      0.99992170
       22902.000      0.99992111
       22902.040      0.99992053
       22902.080      0.99991993
       22902.120      0.99991933
       22902.160      0.99991873
       22902.200      0.99991812
       22902.240      0.99991751
       22902.280      0.99991689
       22902.320      0.99991627
       22902.360      0.99991564
       22902.400      0.99991501
       22902.440      0.99991437
       22902.480      0.99991373
       22902.520      0.99991308
       22902.560      0.99991243
       22902.600      0.99991177
       22902.640      0.99991110
       22902.680      0.99991043
       22902.720      0.99990975
       22902.760      0.99990907
       22902.800      0.99990838
       22902.840      0.99990769
       22902.880      0.99990699
       22902.920      0.99990628
       22902.960      0.99990556
       22903.000      0.99990484
       22903.040      0.99990411
       22903.080      0.99990338
       22903.120      0.99990263
       22903.160      0.99990188
       22903.200      0.99990112
       22903.240      0.99990035
       22903.280      0.99989956
       22903.320      0.99989877
       22903.360      0.99989797
       22903.400      0.99989716
       22903.440      0.99989633
       22903.480      0.99989549
       22903.520      0.99989464
       22903.560      0.99989378
       22903.600      0.99989290
       22903.640      0.99989201
       22903.680      0.99989111
       22903.720      0.99989019
       22903.760      0.99988925
       22903.800      0.99988830
       22903.840      0.99988734
       22903.880      0.99988635
       22903.920      0.99988535
       22903.960      0.99988433
       22904.000      0.99988330
       22904.040      0.99988224
       22904.080      0.99988117
       22904.120      0.99988008
       22904.160      0.99987897
       22904.200      0.99987784
       22904.240      0.99987668
       22904.280      0.99987551
       22904.320      0.99987432
       22904.360      0.99987310
       22904.400      0.99987186
       22904.440      0.99987060
       22904.480      0.99986931
       22904.520      0.99986800
       22904.560      0.99986667
       22904.600      0.99986531
       22904.640      0.99986393
       22904.680      0.99986252
       22904.720      0.99986109
       22904.760      0.99985963
       22904.800      0.99985814
       22904.840      0.99985663
       22904.880      0.99985508
       22904.920      0.99985351
       22904.960      0.99985192
       22905.000      0.99985029
       22905.040      0.99984863
       22905.080      0.99984694
       22905.120      0.99984523
       22905.160      0.99984348
       22905.200      0.99984170
       22905.240      0.99983989
       22905.280      0.99983804
       22905.320      0.99983617
       22905.360      0.99983426
       22905.400      0.99983232
       22905.440      0.99983034
       22905.480      0.99982833
       22905.520      0.99982628
       22905.560      0.99982420
       22905.600      0.99982209
       22905.640      0.99981993
       22905.680      0.99981774
       22905.720      0.99981552
       22905.760      0.99981325
       22905.800      0.99981095
       22905.840      0.99980861
       22905.880      0.99980623
       22905.920      0.99980381
       22905.960      0.99980135
       22906.000      0.99979885
       22906.040      0.99979630
       22906.080      0.99979371
       22906.120      0.99979108
       22906.160      0.99978840
       22906.200      0.99978567
       22906.240      0.99978290
       22906.280      0.99978007
       22906.320      0.99977720
       22906.360      0.99977427
       22906.400      0.99977129
       22906.440      0.99976826
       22906.480      0.99976517
       22906.520      0.99976203
       22906.560      0.99975883
       22906.600      0.99975557
       22906.640      0.99975226
       22906.680      0.99974888
       22906.720      0.99974544
       22906.760      0.99974194
       22906.800      0.99973838
       22906.840      0.99973476
       22906.880      0.99973107
       22906.920      0.99972731
       22906.960      0.99972348
       22907.000      0.99971959
       22907.040      0.99971563
       22907.080      0.99971160
       22907.120      0.99970749
       22907.160      0.99970331
       22907.200      0.99969906
       22907.240      0.99969474
       22907.280      0.99969033
       22907.320      0.99968585
       22907.360      0.99968128
       22907.400      0.99967663
       22907.440      0.99967188
       22907.480      0.99966702
       22907.520      0.99966205
       22907.560      0.99965697
       22907.600      0.99965176
       22907.640      0.99964641
       22907.680      0.99964092
       22907.720      0.99963528
       22907.760      0.99962948
       22907.800      0.99962352
       22907.840      0.99961738
       22907.880      0.99961106
       22907.920      0.99960455
       22907.960      0.99959784
       22908.000      0.99959093
       22908.040      0.99958380
       22908.080      0.99957645
       22908.120      0.99956887
       22908.160      0.99956106
       22908.200      0.99955299
       22908.240      0.99954468
       22908.280      0.99953610
       22908.320      0.99952725
       22908.360      0.99951813
       22908.400      0.99950872
       22908.440      0.99949902
       22908.480      0.99948902
       22908.520      0.99947871
       22908.560      0.99946808
       22908.600      0.99945713
       22908.640      0.99944584
       22908.680      0.99943421
       22908.720      0.99942224
       22908.760      0.99940990
       22908.800      0.99939719
       22908.840      0.99938409
       22908.880      0.99937058
       22908.920      0.99935665
       22908.960      0.99934226
       22909.000      0.99932740
       22909.040      0.99931205
       22909.080      0.99929617
       22909.120      0.99927976
       22909.160      0.99926278
       22909.200      0.99924522
       22909.240      0.99922704
       22909.280      0.99920824
       22909.320      0.99918877
       22909.360      0.99916863
       22909.400      0.99914778
       22909.440      0.99912620
       22909.480      0.99910385
       22909.520      0.99908069
       22909.560      0.99905662
       22909.600      0.99903157
       22909.640      0.99900542
       22909.680      0.99897805
       22909.720      0.99894933
       22909.760      0.99891914
       22909.800      0.99888734
       22909.840      0.99885380
       22909.880      0.99881840
       22909.920      0.99878101
       22909.960      0.99874149
       22910.000      0.99869973
       22910.040      0.99865558
       22910.080      0.99860892
       22910.120      0.99855961
       22910.160      0.99850753
       22910.200      0.99845252
       22910.240      0.99839442
       22910.280      0.99833305
       22910.320      0.99826817
       22910.360      0.99819953
       22910.400      0.99812686
       22910.440      0.99804988
       22910.480      0.99796826
       22910.520      0.99788166
       22910.560      0.99778962
       22910.600      0.99769149
       22910.640      0.99758629
       22910.680      0.99747260
       22910.720      0.99734862
       22910.760      0.99721237
       22910.800      0.99706173
       22910.840      0.99689454
       22910.880      0.99670860
       22910.920      0.99650165
       22910.960      0.99627128
       22911.000      0.99601481
       22911.040      0.99572887
       22911.080      0.99540876
       22911.120      0.99504711
       22911.160      0.99463158
       22911.200      0.99414164
       22911.240      0.99354759
       22911.280      0.99281437
       22911.320      0.99190651
       22911.360      0.99079350
       22911.400      0.98945560
       22911.440      0.98788848
       22911.480      0.98610965
       22911.520      0.98417200
       22911.560      0.98218508
       22911.600      0.98032329
       22911.640      0.97879375
       22911.680      0.97778787
       22911.720      0.97742460
       22911.760      0.97769449
       22911.800      0.97846073
       22911.840      0.97951726
       22911.880      0.98064625
       22911.920      0.98165432
       22911.960      0.98238221
       22912.000      0.98270846
       22912.040      0.98255097
       22912.080      0.98184225
       22912.120      0.98048838
       22912.160      0.97834183
       22912.200      0.97518474
       22912.240      0.97072549
       22912.280      0.96461939
       22912.320      0.95652234
       22912.360      0.94617856
       22912.400      0.93353057
       22912.440      0.91881201
       22912.480      0.90257798
       22912.520      0.88564534
       22912.560      0.86895935
       22912.600      0.85343991
       22912.640      0.83986507
       22912.680      0.82881295
       22912.720      0.82066091
       22912.760      0.81562213
       22912.800      0.81379059
       22912.840      0.81517562
       22912.880      0.81971732
       22912.920      0.82728338
       22912.960      0.83764884
       22913.000      0.85046273
       22913.040      0.86521881
       22913.080      0.88124821
       22913.120      0.89774912
       22913.160      0.91386785
       22913.200      0.92882045
       22913.240      0.94201697
       22913.280      0.95314076
       22913.320      0.96215287
       22913.360      0.96923179
       22913.400      0.97467865
       22913.440      0.97883033
       22913.480      0.98199941
       22913.520      0.98444433
       22913.560      0.98636359
       22913.600      0.98790160
       22913.640      0.98915979
       22913.680      0.99020849
       22913.720      0.99109664
       22913.760      0.99185922
       22913.800      0.99252169
       22913.840      0.99310271
       22913.880      0.99361582
       22913.920      0.99407111
       22913.960      0.99447669
       22914.000      0.99483938
       22914.040      0.99516503
       22914.080      0.99545865
       22914.120      0.99572461
       22914.160      0.99596678
       22914.200      0.99618842
       22914.240      0.99639209
       22914.280      0.99657975
       22914.320      0.99675302
       22914.360      0.99691331
       22914.400      0.99706188
       22914.440      0.99719992
       22914.480      0.99732853
       22914.520      0.99744870
       22914.560      0.99756130
       22914.600      0.99766696
       22914.640      0.99776618
       22914.680      0.99785933
       22914.720      0.99794677
       22914.760      0.99802879
       22914.800      0.99810571
       22914.840      0.99817781
       22914.880      0.99824540
       22914.920      0.99830878
       22914.960      0.99836823
       22915.000      0.99842405
       22915.040      0.99847654
       22915.080      0.99852600
       22915.120      0.99857271
       22915.160      0.99861696
       22915.200      0.99865903
       22915.240      0.99869917
       22915.280      0.99873758
       22915.320      0.99877442
       22915.360      0.99880978
       22915.400      0.99884374
       22915.440      0.99887637
       22915.480      0.99890771
       22915.520      0.99893783
       22915.560      0.99896676
       22915.600      0.99899455
       22915.640      0.99902127
       22915.680      0.99904694
       22915.720      0.99907164
       22915.760      0.99909539
       22915.800      0.99911826
       22915.840      0.99914029
       22915.880      0.99916153
       22915.920      0.99918203
       22915.960      0.99920182
       22916.000      0.99922095
       22916.040      0.99923945
       22916.080      0.99925732
       22916.120      0.99927460
       22916.160      0.99929130
       22916.200      0.99930744
       22916.240      0.99932302
       22916.280      0.99933807
       22916.320      0.99935260
       22916.360      0.99936662
       22916.400      0.99938014
       22916.440      0.99939319
       22916.480      0.99940578
       22916.520      0.99941791
       22916.560      0.99942962
       22916.600      0.99944090
       22916.640      0.99945177
       22916.680      0.99946226
       22916.720      0.99947237
       22916.760      0.99948212
       22916.800      0.99949152
       22916.840      0.99950058
       22916.880      0.99950933
       22916.920      0.99951778
       22916.960      0.99952593
       22917.000      0.99953382
       22917.040      0.99954144
       22917.080      0.99954881
       22917.120      0.99955596
       22917.160      0.99956288
       22917.200      0.99956961
       22917.240      0.99957615
       22917.280      0.99958251
       22917.320      0.99958872
       22917.360      0.99959478
       22917.400      0.99960070
       22917.440      0.99960650
       22917.480      0.99961219
       22917.520      0.99961776
       22917.560      0.99962322
       22917.600      0.99962857
       22917.640      0.99963382
       22917.680      0.99963896
       22917.720      0.99964400
       22917.760      0.99964894
       22917.800      0.99965378
       22917.840      0.99965853
       22917.880      0.99966317
       22917.920      0.99966773
       22917.960      0.99967219
       22918.000      0.99967657
       22918.040      0.99968085
       22918.080      0.99968505
       22918.120      0.99968916
       22918.160      0.99969320
       22918.200      0.99969715
       22918.240      0.99970102
       22918.280      0.99970481
       22918.320      0.99970853
       22918.360      0.99971217
       22918.400      0.99971574
       22918.440      0.99971924
       22918.480      0.99972267
       22918.520      0.99972603
       22918.560      0.99972933
       22918.600      0.99973257
       22918.640      0.99973574
       22918.680      0.99973885
       22918.720      0.99974191
       22918.760      0.99974490
       22918.800      0.99974785
       22918.840      0.99975073
       22918.880      0.99975357
       22918.920      0.99975636
       22918.960      0.99975909
       22919.000      0.99976178
       22919.040      0.99976441
       22919.080      0.99976700
       22919.120      0.99976954
       22919.160      0.99977204
       22919.200      0.99977448
       22919.240      0.99977689
       22919.280      0.99977924
       22919.320      0.99978155
       22919.360      0.99978382
       22919.400      0.99978605
       22919.440      0.99978823
       22919.480      0.99979037
       22919.520      0.99979247
       22919.560      0.99979453
       22919.600      0.99979654
       22919.640      0.99979852
       22919.680      0.99980046
       22919.720      0.99980236
       22919.760      0.99980422
       22919.800      0.99980605
       22919.840      0.99980784
       22919.880      0.99980959
       22919.920      0.99981131
       22919.960      0.99981299
       22920.000      0.99981464
       22920.040      0.99981626
       22920.080      0.99981784
       22920.120      0.99981939
       22920.160      0.99982091
       22920.200      0.99982240
       22920.240      0.99982386
       22920.280      0.99982529
       22920.320      0.99982669
       22920.360      0.99982806
       22920.400      0.99982940
       22920.440      0.99983072
       22920.480      0.99983201
       22920.520      0.99983327
       22920.560      0.99983451
       22920.600      0.99983572
       22920.640      0.99983691
       22920.680      0.99983808
       22920.720      0.99983922
       22920.760      0.99984034
       22920.800      0.99984144
       22920.840      0.99984252
       22920.880      0.99984358
       22920.920      0.99984462
       22920.960      0.99984564
       22921.000      0.99984664
       22921.040      0.99984762
       22921.080      0.99984859
       22921.120      0.99984953
       22921.160      0.99985047
       22921.200      0.99985139
       22921.240      0.99985229
       22921.280      0.99985318
       22921.320      0.99985405
       22921.360      0.99985491
       22921.400      0.99985576
       22921.440      0.99985660
       22921.480      0.99985743
       22921.520      0.99985825
       22921.560      0.99985905
       22921.600      0.99985985
       22921.640      0.99986064
       22921.680      0.99986142
       22921.720      0.99986220
       22921.760      0.99986296
       22921.800      0.99986372
       22921.840      0.99986447
       22921.880      0.99986522
       22921.920      0.99986596
       22921.960      0.99986669
       22922.000      0.99986742
       22922.040      0.99986813
       22922.080      0.99986885
       22922.120      0.99986955
       22922.160      0.99987025
       22922.200      0.99987094
       22922.240      0.99987163
       22922.280      0.99987231
       22922.320      0.99987298
       22922.360      0.99987364
       22922.400      0.99987430
       22922.440      0.99987496
       22922.480      0.99987560
       22922.520      0.99987624
       22922.560      0.99987687
       22922.600      0.99987750
       22922.640      0.99987812
       22922.680      0.99987873
       22922.720      0.99987934
       22922.760      0.99987994
       22922.800      0.99988053
       22922.840      0.99988112
       22922.880      0.99988170
       22922.920      0.99988227
       22922.960      0.99988284
       22923.000      0.99988340
       22923.040      0.99988395
       22923.080      0.99988450
       22923.120      0.99988504
       22923.160      0.99988557
       22923.200      0.99988610
       22923.240      0.99988662
       22923.280      0.99988714
       22923.320      0.99988765
       22923.360      0.99988815
       22923.400      0.99988865
       22923.440      0.99988914
       22923.480      0.99988962
       22923.520      0.99989010
       22923.560      0.99989057
       22923.600      0.99989104
       22923.640      0.99989149
       22923.680      0.99989195
       22923.720      0.99989239
       22923.760      0.99989283
       22923.800      0.99989326
       22923.840      0.99989369
       22923.880      0.99989411
       22923.920      0.99989453
       22923.960      0.99989493
       22924.000      0.99989534
       22924.040      0.99989573
       22924.080      0.99989612
       22924.120      0.99989651
       22924.160      0.99989688
