 #      wave           flux
       14900.000      0.99785448
       14900.030      0.99782443
       14900.060      0.99778354
       14900.090      0.99773696
       14900.120      0.99768734
       14900.150      0.99763583
       14900.180      0.99758275
       14900.210      0.99752803
       14900.240      0.99747146
       14900.270      0.99741282
       14900.300      0.99735181
       14900.330      0.99728817
       14900.360      0.99722155
       14900.390      0.99715154
       14900.420      0.99707758
       14900.450      0.99699900
       14900.480      0.99691505
       14900.510      0.99682498
       14900.540      0.99672798
       14900.570      0.99662327
       14900.600      0.99651005
       14900.630      0.99638751
       14900.660      0.99625484
       14900.690      0.99611114
       14900.720      0.99595534
       14900.750      0.99578601
       14900.780      0.99560110
       14900.810      0.99539775
       14900.840      0.99517236
       14900.870      0.99492042
       14900.900      0.99463621
       14900.930      0.99431222
       14900.960      0.99393789
       14900.990      0.99349821
       14901.020      0.99297241
       14901.050      0.99233047
       14901.080      0.99152629
       14901.110      0.99048341
       14901.140      0.98905767
       14901.170      0.98695594
       14901.200      0.98358363
       14901.230      0.97778794
       14901.260      0.96751242
       14901.290      0.94961930
       14901.320      0.92056612
       14901.350      0.87891815
       14901.380      0.82893469
       14901.410      0.78078983
       14901.440      0.74532066
       14901.470      0.72929286
       14901.500      0.73510542
       14901.530      0.76189570
       14901.560      0.80504744
       14901.590      0.85529451
       14901.620      0.90135977
       14901.650      0.93590581
       14901.680      0.95812746
       14901.710      0.97103851
       14901.740      0.97813933
       14901.770      0.98198924
       14901.800      0.98411126
       14901.830      0.98531312
       14901.860      0.98599848
       14901.890      0.98636420
       14901.920      0.98650878
       14901.950      0.98648454
       14901.980      0.98632122
       14902.010      0.98603550
       14902.040      0.98563543
       14902.070      0.98512289
       14902.100      0.98449464
       14902.130      0.98374252
       14902.160      0.98285283
       14902.190      0.98180557
       14902.220      0.98057254
       14902.250      0.97911479
       14902.280      0.97737862
       14902.310      0.97529231
       14902.340      0.97276587
       14902.370      0.96969415
       14902.400      0.96597558
       14902.430      0.96155187
       14902.460      0.95646560
       14902.490      0.95092338
       14902.520      0.94531629
       14902.550      0.94016628
       14902.580      0.93602457
       14902.610      0.93333890
       14902.640      0.93234341
       14902.670      0.93303824
       14902.700      0.93524280
       14902.730      0.93867347
       14902.760      0.94300443
       14902.790      0.94789731
       14902.820      0.95301409
       14902.850      0.95804353
       14902.880      0.96273722
       14902.910      0.96692942
       14902.940      0.97054836
       14902.970      0.97360773
       14903.000      0.97617067
       14903.030      0.97831890
       14903.060      0.98013250
       14903.090      0.98167939
       14903.120      0.98301405
       14903.150      0.98417815
       14903.180      0.98520308
       14903.210      0.98611291
       14903.240      0.98692640
       14903.270      0.98765864
       14903.300      0.98832176
       14903.330      0.98892539
       14903.360      0.98947684
       14903.390      0.98998187
       14903.420      0.99044532
       14903.450      0.99087158
       14903.480      0.99126464
       14903.510      0.99162816
       14903.540      0.99196555
       14903.570      0.99227991
       14903.600      0.99257391
       14903.630      0.99284960
       14903.660      0.99310857
       14903.690      0.99335217
       14903.720      0.99358158
       14903.750      0.99379795
       14903.780      0.99400235
       14903.810      0.99419580
       14903.840      0.99437923
       14903.870      0.99455345
       14903.900      0.99471907
       14903.930      0.99487655
       14903.960      0.99502630
       14903.990      0.99516867
       14904.020      0.99530401
       14904.050      0.99543266
       14904.080      0.99555497
       14904.110      0.99567127
       14904.140      0.99578191
       14904.170      0.99588722
       14904.200      0.99598756
       14904.230      0.99608325
       14904.260      0.99617464
       14904.290      0.99626207
       14904.320      0.99634587
       14904.350      0.99642636
       14904.380      0.99650383
       14904.410      0.99657854
       14904.440      0.99665063
       14904.470      0.99672024
       14904.500      0.99678744
       14904.530      0.99685231
       14904.560      0.99691492
       14904.590      0.99697535
       14904.620      0.99703365
       14904.650      0.99708989
       14904.680      0.99714415
       14904.710      0.99719648
       14904.740      0.99724697
       14904.770      0.99729567
       14904.800      0.99734265
       14904.830      0.99738798
       14904.860      0.99743172
       14904.890      0.99747395
       14904.920      0.99751471
       14904.950      0.99755407
       14904.980      0.99759205
       14905.010      0.99762869
       14905.040      0.99766402
       14905.070      0.99769806
       14905.100      0.99773083
       14905.130      0.99776236
       14905.160      0.99779267
       14905.190      0.99782178
       14905.220      0.99784972
       14905.250      0.99787650
       14905.280      0.99790216
       14905.310      0.99792671
       14905.340      0.99795018
       14905.370      0.99797259
       14905.400      0.99799397
       14905.430      0.99801433
       14905.460      0.99803370
       14905.490      0.99805209
       14905.520      0.99806952
       14905.550      0.99808601
       14905.580      0.99810155
       14905.610      0.99811617
       14905.640      0.99812988
       14905.670      0.99814268
       14905.700      0.99815458
       14905.730      0.99816560
       14905.760      0.99817575
       14905.790      0.99818503
       14905.820      0.99819345
       14905.850      0.99820103
       14905.880      0.99820778
       14905.910      0.99821370
       14905.940      0.99821879
       14905.970      0.99822303
       14906.000      0.99822636
       14906.030      0.99822862
       14906.060      0.99822959
       14906.090      0.99822894
       14906.120      0.99822632
       14906.150      0.99822136
       14906.180      0.99821371
       14906.210      0.99820302
       14906.240      0.99818900
       14906.270      0.99817151
       14906.300      0.99815065
       14906.330      0.99812680
       14906.360      0.99810059
       14906.390      0.99807272
       14906.420      0.99804396
       14906.450      0.99801503
       14906.480      0.99798654
       14906.510      0.99795873
       14906.540      0.99793113
       14906.570      0.99790186
       14906.600      0.99786739
       14906.630      0.99782289
       14906.660      0.99776279
       14906.690      0.99768090
       14906.720      0.99757043
       14906.750      0.99742441
       14906.780      0.99723650
       14906.810      0.99700231
       14906.840      0.99672120
       14906.870      0.99639741
       14906.900      0.99603964
       14906.930      0.99566115
       14906.960      0.99528204
       14906.990      0.99493255
       14907.020      0.99465012
       14907.050      0.99447147
       14907.080      0.99442293
       14907.110      0.99450799
       14907.140      0.99470140
       14907.170      0.99496096
       14907.200      0.99524151
       14907.230      0.99550628
       14907.260      0.99573186
       14907.290      0.99590451
       14907.320      0.99601690
       14907.350      0.99606725
       14907.380      0.99605802
       14907.410      0.99599296
       14907.440      0.99587401
       14907.470      0.99569833
       14907.500      0.99545755
       14907.530      0.99513833
       14907.560      0.99472100
       14907.590      0.99417499
       14907.620      0.99345030
       14907.650      0.99245958
       14907.680      0.99104100
       14907.710      0.98887765
       14907.740      0.98534535
       14907.770      0.97926947
       14907.800      0.96864348
       14907.830      0.95058254
       14907.860      0.92218215
       14907.890      0.88298375
       14907.920      0.83787148
       14907.950      0.79656758
       14907.980      0.76894555
       14908.010      0.76108542
       14908.040      0.77456206
       14908.070      0.80663949
       14908.100      0.85004951
       14908.130      0.89444229
       14908.160      0.93103520
       14908.190      0.95652747
       14908.220      0.97234718
       14908.250      0.98156318
       14908.280      0.98685771
       14908.310      0.98999180
       14908.340      0.99196895
       14908.370      0.99331256
       14908.400      0.99428470
       14908.430      0.99502149
       14908.460      0.99559970
       14908.490      0.99606513
       14908.520      0.99644725
       14908.550      0.99676600
       14908.580      0.99703518
       14908.610      0.99726490
       14908.640      0.99746261
       14908.670      0.99763379
       14908.700      0.99778275
       14908.730      0.99791313
       14908.760      0.99802817
       14908.790      0.99813082
       14908.820      0.99822358
       14908.850      0.99830813
       14908.880      0.99838471
       14908.910      0.99845198
       14908.940      0.99850775
       14908.970      0.99854978
       14909.000      0.99857600
       14909.030      0.99858304
       14909.060      0.99855871
       14909.090      0.99845836
       14909.120      0.99816072
       14909.150      0.99742283
       14909.180      0.99588196
       14909.210      0.99310274
       14909.240      0.98879132
       14909.270      0.98328572
       14909.300      0.97790520
       14909.330      0.97458809
       14909.360      0.97476763
       14909.390      0.97832601
       14909.420      0.98371914
       14909.450      0.98915130
       14909.480      0.99345214
       14909.510      0.99623280
       14909.540      0.99776196
       14909.570      0.99852023
       14909.600      0.99887856
       14909.630      0.99904795
       14909.660      0.99913256
       14909.690      0.99917974
       14909.720      0.99920979
       14909.750      0.99923176
       14909.780      0.99925017
       14909.810      0.99926714
       14909.840      0.99928334
       14909.870      0.99929886
       14909.900      0.99931354
       14909.930      0.99932724
       14909.960      0.99933991
       14909.990      0.99935159
       14910.020      0.99936237
       14910.050      0.99937234
       14910.080      0.99938163
       14910.110      0.99939034
       14910.140      0.99939859
       14910.170      0.99940647
       14910.200      0.99941407
       14910.230      0.99942142
       14910.260      0.99942853
       14910.290      0.99943543
       14910.320      0.99944209
       14910.350      0.99944852
       14910.380      0.99945472
       14910.410      0.99946067
       14910.440      0.99946637
       14910.470      0.99947182
       14910.500      0.99947703
       14910.530      0.99948200
       14910.560      0.99948675
       14910.590      0.99949129
       14910.620      0.99949564
       14910.650      0.99949980
       14910.680      0.99950379
       14910.710      0.99950761
       14910.740      0.99951125
       14910.770      0.99951467
       14910.800      0.99951782
       14910.830      0.99952063
       14910.860      0.99952300
       14910.890      0.99952486
       14910.920      0.99952613
       14910.950      0.99952671
       14910.980      0.99952656
       14911.010      0.99952563
       14911.040      0.99952391
       14911.070      0.99952140
       14911.100      0.99951803
       14911.130      0.99951338
       14911.160      0.99950622
       14911.190      0.99949338
       14911.220      0.99946740
       14911.250      0.99940980
       14911.280      0.99927339
       14911.310      0.99894352
       14911.340      0.99817006
       14911.370      0.99648423
       14911.400      0.99316929
       14911.430      0.98746140
       14911.460      0.97920446
       14911.490      0.96959626
       14911.520      0.96108345
       14911.550      0.95666653
       14911.580      0.95827254
       14911.610      0.96526615
       14911.640      0.97490808
       14911.670      0.98410305
       14911.700      0.99098878
       14911.730      0.99527627
       14911.760      0.99758500
       14911.790      0.99869448
       14911.820      0.99918454
       14911.850      0.99939137
       14911.880      0.99947905
       14911.910      0.99951830
       14911.940      0.99953777
       14911.970      0.99954906
       14912.000      0.99955703
       14912.030      0.99956350
       14912.060      0.99956902
       14912.090      0.99957363
       14912.120      0.99957727
       14912.150      0.99957991
       14912.180      0.99958157
       14912.210      0.99958233
       14912.240      0.99958230
       14912.270      0.99958160
       14912.300      0.99958031
       14912.330      0.99957855
       14912.360      0.99957639
       14912.390      0.99957387
       14912.420      0.99957095
       14912.450      0.99956755
       14912.480      0.99956358
       14912.510      0.99955890
       14912.540      0.99955340
       14912.570      0.99954697
       14912.600      0.99953949
       14912.630      0.99953087
       14912.660      0.99952108
       14912.690      0.99951012
       14912.720      0.99949807
       14912.750      0.99948501
       14912.780      0.99947104
       14912.810      0.99945624
       14912.840      0.99944068
       14912.870      0.99942431
       14912.900      0.99940691
       14912.930      0.99938788
       14912.960      0.99936610
       14912.990      0.99934007
       14913.020      0.99930810
       14913.050      0.99926839
       14913.080      0.99921914
       14913.110      0.99915858
       14913.140      0.99908504
       14913.170      0.99899707
       14913.200      0.99889349
       14913.230      0.99877298
       14913.260      0.99863232
       14913.290      0.99846243
       14913.320      0.99823991
       14913.350      0.99791092
       14913.380      0.99736423
       14913.410      0.99636660
       14913.440      0.99440685
       14913.470      0.99039656
       14913.500      0.98226949
       14913.530      0.96678951
       14913.560      0.94032256
       14913.590      0.90157551
       14913.620      0.85523029
       14913.650      0.81178904
       14913.680      0.78219254
       14913.710      0.77318689
       14913.740      0.78660203
       14913.770      0.81966665
       14913.800      0.86463505
       14913.830      0.91016377
       14913.860      0.94659387
       14913.890      0.97062223
       14913.920      0.98431997
       14913.950      0.99138582
       14913.980      0.99483534
       14914.010      0.99651239
       14914.040      0.99737406
       14914.070      0.99786593
       14914.100      0.99818274
       14914.130      0.99840751
       14914.160      0.99857608
       14914.190      0.99870515
       14914.220      0.99880413
       14914.250      0.99887974
       14914.280      0.99893758
       14914.310      0.99898228
       14914.340      0.99901725
       14914.370      0.99904434
       14914.400      0.99906440
       14914.430      0.99907771
       14914.460      0.99908433
       14914.490      0.99908424
       14914.520      0.99907738
       14914.550      0.99906366
       14914.580      0.99904301
       14914.610      0.99901532
       14914.640      0.99898036
       14914.670      0.99893770
       14914.700      0.99888630
       14914.730      0.99882405
       14914.760      0.99874719
       14914.790      0.99865059
       14914.820      0.99852808
       14914.850      0.99837223
       14914.880      0.99817287
       14914.910      0.99791318
       14914.940      0.99756132
       14914.970      0.99705615
       14915.000      0.99628477
       14915.030      0.99504819
       14915.060      0.99301574
       14915.090      0.98969593
       14915.120      0.98447578
       14915.150      0.97679207
       14915.180      0.96643119
       14915.210      0.95378024
       14915.240      0.93968321
       14915.270      0.92468417
       14915.300      0.90803056
       14915.330      0.88758785
       14915.360      0.86175057
       14915.390      0.83261306
       14915.420      0.80706592
       14915.450      0.79369016
       14915.480      0.79847045
       14915.510      0.82234413
       14915.540      0.86039476
       14915.570      0.90291413
       14915.600      0.93980725
       14915.630      0.96580895
       14915.660      0.98140594
       14915.690      0.98976155
       14915.720      0.99395508
       14915.750      0.99603116
       14915.780      0.99708957
       14915.810      0.99766610
       14915.840      0.99801764
       14915.870      0.99826728
       14915.900      0.99846816
       14915.930      0.99863983
       14915.960      0.99878815
       14915.990      0.99891462
       14916.020      0.99902051
       14916.050      0.99910777
       14916.080      0.99917890
       14916.110      0.99923664
       14916.140      0.99928385
       14916.170      0.99932328
       14916.200      0.99935746
       14916.230      0.99938843
       14916.260      0.99941744
       14916.290      0.99944506
       14916.320      0.99947147
       14916.350      0.99949667
       14916.380      0.99952059
       14916.410      0.99954313
       14916.440      0.99956420
       14916.470      0.99958374
       14916.500      0.99960174
       14916.530      0.99961824
       14916.560      0.99963330
       14916.590      0.99964702
       14916.620      0.99965948
       14916.650      0.99967079
       14916.680      0.99968103
       14916.710      0.99969030
       14916.740      0.99969870
       14916.770      0.99970634
       14916.800      0.99971329
       14916.830      0.99971966
       14916.860      0.99972554
       14916.890      0.99973104
       14916.920      0.99973623
       14916.950      0.99974120
       14916.980      0.99974601
       14917.010      0.99975069
       14917.040      0.99975527
       14917.070      0.99975974
       14917.100      0.99976410
       14917.130      0.99976834
       14917.160      0.99977247
       14917.190      0.99977648
       14917.220      0.99978036
       14917.250      0.99978411
       14917.280      0.99978772
       14917.310      0.99979118
       14917.340      0.99979450
       14917.370      0.99979767
       14917.400      0.99980067
       14917.430      0.99980352
       14917.460      0.99980620
       14917.490      0.99980872
       14917.520      0.99981108
       14917.550      0.99981329
       14917.580      0.99981536
       14917.610      0.99981729
       14917.640      0.99981910
       14917.670      0.99982079
       14917.700      0.99982237
       14917.730      0.99982386
       14917.760      0.99982525
       14917.790      0.99982656
       14917.820      0.99982780
       14917.850      0.99982898
       14917.880      0.99983010
       14917.910      0.99983117
       14917.940      0.99983219
       14917.970      0.99983317
       14918.000      0.99983410
       14918.030      0.99983496
       14918.060      0.99983573
       14918.090      0.99983640
       14918.120      0.99983693
