 #      wave           flux
       19380.000      0.99825212
       19380.036      0.99824445
       19380.073      0.99823262
       19380.109      0.99821859
       19380.146      0.99820341
       19380.182      0.99818762
       19380.219      0.99817142
       19380.255      0.99815488
       19380.292      0.99813796
       19380.329      0.99812065
       19380.365      0.99810288
       19380.402      0.99808461
       19380.438      0.99806579
       19380.475      0.99804636
       19380.511      0.99802629
       19380.548      0.99800551
       19380.584      0.99798399
       19380.621      0.99796166
       19380.657      0.99793848
       19380.694      0.99791442
       19380.730      0.99788942
       19380.767      0.99786345
       19380.803      0.99783648
       19380.839      0.99780847
       19380.876      0.99777941
       19380.912      0.99774925
       19380.949      0.99771797
       19380.985      0.99768553
       19381.022      0.99765191
       19381.058      0.99761707
       19381.095      0.99758099
       19381.132      0.99754364
       19381.168      0.99750498
       19381.205      0.99746499
       19381.241      0.99742364
       19381.278      0.99738091
       19381.314      0.99733678
       19381.351      0.99729124
       19381.387      0.99724432
       19381.424      0.99719610
       19381.460      0.99714669
       19381.497      0.99709623
       19381.533      0.99704485
       19381.570      0.99699267
       19381.606      0.99693981
       19381.643      0.99688639
       19381.679      0.99683248
       19381.715      0.99677809
       19381.752      0.99672304
       19381.788      0.99666699
       19381.825      0.99660955
       19381.861      0.99655033
       19381.898      0.99648890
       19381.934      0.99642480
       19381.971      0.99635745
       19382.008      0.99628599
       19382.044      0.99620903
       19382.081      0.99612462
       19382.117      0.99603037
       19382.154      0.99592362
       19382.190      0.99580208
       19382.227      0.99566428
       19382.263      0.99550918
       19382.300      0.99533523
       19382.336      0.99513792
       19382.373      0.99490523
       19382.409      0.99461215
       19382.446      0.99421983
       19382.482      0.99368612
       19382.518      0.99298280
       19382.555      0.99211957
       19382.591      0.99116968
       19382.628      0.99026566
       19382.664      0.98956254
       19382.701      0.98919509
       19382.737      0.98922992
       19382.774      0.98962913
       19382.811      0.99027333
       19382.847      0.99100941
       19382.884      0.99169360
       19382.920      0.99223091
       19382.957      0.99259398
       19382.993      0.99280250
       19383.030      0.99289719
       19383.066      0.99292027
       19383.103      0.99290158
       19383.139      0.99285494
       19383.176      0.99278403
       19383.212      0.99268853
       19383.249      0.99256866
       19383.285      0.99242794
       19383.321      0.99227297
       19383.358      0.99211140
       19383.394      0.99194947
       19383.431      0.99178941
       19383.467      0.99162799
       19383.504      0.99145780
       19383.540      0.99126913
       19383.577      0.99105119
       19383.613      0.99079301
       19383.650      0.99048397
       19383.687      0.99011445
       19383.723      0.98967718
       19383.760      0.98916904
       19383.796      0.98859244
       19383.833      0.98795552
       19383.869      0.98727141
       19383.906      0.98655808
       19383.942      0.98584083
       19383.979      0.98515445
       19384.015      0.98453743
       19384.052      0.98402353
       19384.088      0.98363151
       19384.125      0.98335197
       19384.161      0.98314426
       19384.197      0.98295253
       19384.234      0.98272359
       19384.270      0.98241847
       19384.307      0.98201269
       19384.343      0.98149428
       19384.380      0.98086286
       19384.416      0.98012629
       19384.453      0.97929602
       19384.490      0.97838433
       19384.526      0.97740229
       19384.563      0.97635664
       19384.599      0.97524590
       19384.636      0.97405800
       19384.672      0.97277465
       19384.709      0.97137551
       19384.745      0.96984102
       19384.782      0.96815154
       19384.818      0.96628596
       19384.855      0.96422229
       19384.891      0.96194513
       19384.928      0.95946129
       19384.964      0.95681713
       19385.000      0.95409394
       19385.037      0.95136664
       19385.073      0.94865050
       19385.110      0.94586960
       19385.146      0.94289028
       19385.183      0.93957774
       19385.219      0.93583864
       19385.256      0.93161930
       19385.293      0.92687882
       19385.329      0.92156473
       19385.366      0.91562121
       19385.402      0.90899110
       19385.439      0.90158697
       19385.475      0.89329081
       19385.512      0.88397122
       19385.548      0.87349126
       19385.585      0.86173375
       19385.621      0.84863027
       19385.658      0.83417656
       19385.694      0.81850682
       19385.731      0.80200471
       19385.767      0.78534254
       19385.804      0.76950698
       19385.840      0.75571854
       19385.876      0.74523005
       19385.913      0.73911391
       19385.949      0.73803355
       19385.986      0.74209419
       19386.022      0.75085281
       19386.059      0.76338516
       19386.095      0.77849466
       19386.132      0.79493570
       19386.169      0.81160421
       19386.205      0.82768105
       19386.242      0.84267980
       19386.278      0.85637859
       19386.315      0.86871218
       19386.351      0.87972856
       19386.388      0.88953258
       19386.424      0.89825748
       19386.461      0.90604992
       19386.497      0.91304344
       19386.534      0.91934018
       19386.570      0.92501761
       19386.607      0.93014728
       19386.643      0.93479813
       19386.679      0.93903119
       19386.716      0.94289734
       19386.752      0.94643583
       19386.789      0.94967570
       19386.825      0.95264126
       19386.862      0.95535700
       19386.898      0.95784883
       19386.935      0.96014223
       19386.972      0.96226002
       19387.008      0.96422167
       19387.045      0.96604352
       19387.081      0.96773840
       19387.118      0.96931610
       19387.154      0.97078458
       19387.191      0.97215097
       19387.227      0.97342209
       19387.264      0.97460472
       19387.300      0.97570578
       19387.337      0.97673228
       19387.373      0.97769117
       19387.410      0.97858919
       19387.446      0.97943261
       19387.482      0.98022676
       19387.519      0.98097561
       19387.555      0.98168189
       19387.592      0.98234763
       19387.628      0.98297450
       19387.665      0.98356408
       19387.701      0.98411800
       19387.738      0.98463795
       19387.775      0.98512573
       19387.811      0.98558320
       19387.848      0.98601227
       19387.884      0.98641485
       19387.921      0.98679284
       19387.957      0.98714815
       19387.994      0.98748268
       19388.030      0.98779828
       19388.067      0.98809670
       19388.103      0.98837945
       19388.140      0.98864766
       19388.176      0.98890188
       19388.213      0.98914224
       19388.249      0.98936856
       19388.286      0.98958057
       19388.322      0.98977791
       19388.358      0.98996023
       19388.395      0.99012716
       19388.431      0.99027832
       19388.468      0.99041332
       19388.504      0.99053176
       19388.541      0.99063318
       19388.577      0.99071703
       19388.614      0.99078268
       19388.651      0.99082943
       19388.687      0.99085649
       19388.724      0.99086308
       19388.760      0.99084844
       19388.797      0.99081181
       19388.833      0.99075230
       19388.870      0.99066883
       19388.906      0.99055992
       19388.943      0.99042307
       19388.979      0.99025356
       19389.016      0.99004292
       19389.052      0.98977816
       19389.089      0.98944385
       19389.125      0.98902535
       19389.161      0.98851319
       19389.198      0.98790995
       19389.234      0.98724015
       19389.271      0.98655488
       19389.307      0.98592210
       19389.344      0.98541448
       19389.380      0.98509781
       19389.417      0.98501607
       19389.454      0.98517185
       19389.490      0.98551800
       19389.527      0.98597371
       19389.563      0.98643977
       19389.600      0.98680397
       19389.636      0.98693574
       19389.673      0.98665552
       19389.709      0.98565672
       19389.746      0.98337756
       19389.782      0.97883467
       19389.819      0.97046946
       19389.855      0.95624933
       19389.892      0.93410702
       19389.928      0.90309471
       19389.964      0.86473892
       19390.001      0.82362555
       19390.037      0.78642477
       19390.074      0.75980913
       19390.110      0.74859581
       19390.147      0.75479405
       19390.183      0.77733839
       19390.220      0.81222102
       19390.257      0.85318409
       19390.293      0.89332232
       19390.330      0.92723078
       19390.366      0.95245051
       19390.403      0.96931011
       19390.439      0.97968085
       19390.476      0.98570163
       19390.512      0.98909314
       19390.549      0.99097473
       19390.585      0.99200972
       19390.622      0.99258490
       19390.658      0.99292749
       19390.695      0.99316663
       19390.731      0.99336414
       19390.768      0.99354223
       19390.804      0.99370410
       19390.840      0.99384626
       19390.877      0.99396506
       19390.913      0.99405911
       19390.950      0.99412897
       19390.986      0.99417630
       19391.023      0.99420326
       19391.059      0.99421219
       19391.096      0.99420548
       19391.133      0.99418545
       19391.169      0.99415419
       19391.206      0.99411337
       19391.242      0.99406406
       19391.279      0.99400680
       19391.315      0.99394179
       19391.352      0.99386908
       19391.388      0.99378862
       19391.425      0.99370034
       19391.461      0.99360414
       19391.498      0.99349988
       19391.534      0.99338733
       19391.571      0.99326610
       19391.607      0.99313558
       19391.643      0.99299498
       19391.680      0.99284342
       19391.716      0.99267998
       19391.753      0.99250374
       19391.789      0.99231370
       19391.826      0.99210878
       19391.862      0.99188767
       19391.899      0.99164867
       19391.936      0.99138933
       19391.972      0.99110644
       19392.009      0.99079622
       19392.045      0.99045462
       19392.082      0.99007743
       19392.118      0.98966039
       19392.155      0.98919913
       19392.191      0.98868921
       19392.228      0.98812597
       19392.264      0.98750422
       19392.301      0.98681766
       19392.337      0.98605819
       19392.374      0.98521479
       19392.410      0.98427056
       19392.446      0.98319745
       19392.483      0.98195018
       19392.519      0.98046303
       19392.556      0.97864272
       19392.592      0.97634430
       19392.629      0.97331701
       19392.665      0.96909699
       19392.702      0.96288453
       19392.738      0.95353578
       19392.775      0.93960224
       19392.812      0.91992463
       19392.848      0.89460576
       19392.885      0.86583373
       19392.921      0.83738109
       19392.958      0.81264584
       19392.994      0.79284017
       19393.031      0.77680841
       19393.067      0.76227419
       19393.104      0.74721054
       19393.140      0.73052125
       19393.177      0.71236426
       19393.213      0.69450783
       19393.250      0.68026575
       19393.286      0.67357820
       19393.322      0.67768099
       19393.359      0.69402712
       19393.395      0.72169469
       19393.432      0.75732715
       19393.468      0.79581249
       19393.505      0.83180889
       19393.541      0.86146513
       19393.578      0.88325506
       19393.615      0.89756860
       19393.651      0.90566809
       19393.688      0.90889580
       19393.724      0.90834032
       19393.761      0.90476239
       19393.797      0.89877903
       19393.834      0.89106423
       19393.870      0.88250150
       19393.907      0.87427859
       19393.943      0.86781222
       19393.980      0.86444585
       19394.016      0.86504119
       19394.053      0.86967056
       19394.089      0.87762275
       19394.125      0.88771898
       19394.162      0.89868018
       19394.198      0.90943424
       19394.235      0.91923081
       19394.271      0.92756466
       19394.308      0.93401541
       19394.344      0.93809391
       19394.381      0.93911908
       19394.418      0.93617805
       19394.454      0.92832515
       19394.491      0.91513623
       19394.527      0.89736494
       19394.564      0.87739798
       19394.600      0.85895406
       19394.637      0.84604867
       19394.673      0.84166894
       19394.710      0.84680811
       19394.746      0.86014206
       19394.783      0.87843705
       19394.819      0.89759444
       19394.856      0.91401072
       19394.892      0.92561380
       19394.929      0.93210653
       19394.965      0.93453832
       19395.001      0.93454551
       19395.038      0.93384904
       19395.074      0.93385252
       19395.111      0.93538364
       19395.147      0.93864147
       19395.184      0.94332283
       19395.220      0.94884337
       19395.257      0.95461657
       19395.294      0.96017523
       19395.330      0.96520634
       19395.367      0.96959414
       19395.403      0.97332622
       19395.440      0.97645235
       19395.476      0.97906890
       19395.513      0.98125749
       19395.549      0.98308807
       19395.586      0.98462984
       19395.622      0.98594166
       19395.659      0.98706557
       19395.695      0.98803132
       19395.732      0.98886390
       19395.768      0.98958767
       19395.804      0.99022534
       19395.841      0.99079498
       19395.877      0.99130836
       19395.914      0.99177293
       19395.950      0.99219392
       19395.987      0.99257548
       19396.023      0.99292113
       19396.060      0.99323406
       19396.097      0.99351734
       19396.133      0.99377403
       19396.170      0.99400717
       19396.206      0.99421976
       19396.243      0.99441475
       19396.279      0.99459495
       19396.316      0.99476285
       19396.352      0.99492041
       19396.389      0.99506895
       19396.425      0.99520931
       19396.462      0.99534216
       19396.498      0.99546804
       19396.535      0.99558745
       19396.571      0.99570087
       19396.607      0.99580878
       19396.644      0.99591164
       19396.680      0.99600988
       19396.717      0.99610390
       19396.753      0.99619402
       19396.790      0.99628045
       19396.826      0.99636337
       19396.863      0.99644288
       19396.900      0.99651908
       19396.936      0.99659205
       19396.973      0.99666188
       19397.009      0.99672865
       19397.046      0.99679244
       19397.082      0.99685333
       19397.119      0.99691141
       19397.155      0.99696675
       19397.192      0.99701945
       19397.228      0.99706957
       19397.265      0.99711721
       19397.301      0.99716245
       19397.338      0.99720536
       19397.374      0.99724603
       19397.411      0.99728455
       19397.447      0.99732098
       19397.483      0.99735543
       19397.520      0.99738795
       19397.556      0.99741864
       19397.593      0.99744758
       19397.629      0.99747482
       19397.666      0.99750046
       19397.702      0.99752455
       19397.739      0.99754716
       19397.776      0.99756838
       19397.812      0.99758827
       19397.849      0.99760691
       19397.885      0.99762435
       19397.922      0.99764069
       19397.958      0.99765598
       19397.995      0.99767029
       19398.031      0.99768371
       19398.068      0.99769629
       19398.104      0.99770812
       19398.141      0.99771926
       19398.177      0.99772978
       19398.214      0.99773976
       19398.250      0.99774926
       19398.286      0.99775835
       19398.323      0.99776709
       19398.359      0.99777550
       19398.396      0.99778362
       19398.432      0.99779142
       19398.469      0.99779887
       19398.505      0.99780592
       19398.542      0.99781253
       19398.579      0.99781864
       19398.615      0.99782421
       19398.652      0.99782918
       19398.688      0.99783350
       19398.725      0.99783712
       19398.761      0.99783999
       19398.798      0.99784205
       19398.834      0.99784326
       19398.871      0.99784357
       19398.907      0.99784292
       19398.944      0.99784126
       19398.980      0.99783854
       19399.017      0.99783470
       19399.053      0.99782971
       19399.089      0.99782351
       19399.126      0.99781605
       19399.162      0.99780730
       19399.199      0.99779725
       19399.235      0.99778590
       19399.272      0.99777326
       19399.308      0.99775936
       19399.345      0.99774424
       19399.382      0.99772792
       19399.418      0.99771043
       19399.455      0.99769182
       19399.491      0.99767212
       19399.528      0.99765135
       19399.564      0.99762955
       19399.601      0.99760676
       19399.637      0.99758301
       19399.674      0.99755833
       19399.710      0.99753275
       19399.747      0.99750632
       19399.783      0.99747906
       19399.820      0.99745100
       19399.856      0.99742218
       19399.893      0.99739262
       19399.929      0.99736232
       19399.965      0.99733125
       19400.002      0.99729930
       19400.038      0.99726627
       19400.075      0.99723187
       19400.111      0.99719576
       19400.148      0.99715756
       19400.184      0.99711688
       19400.221      0.99707334
       19400.258      0.99702653
       19400.294      0.99697607
       19400.331      0.99692155
       19400.367      0.99686257
       19400.404      0.99679868
       19400.440      0.99672941
       19400.477      0.99665422
       19400.513      0.99657253
       19400.550      0.99648378
       19400.586      0.99638741
       19400.623      0.99628284
       19400.659      0.99616953
       19400.696      0.99604691
       19400.732      0.99591445
       19400.768      0.99577158
       19400.805      0.99561772
       19400.841      0.99545237
       19400.878      0.99527483
       19400.914      0.99508342
       19400.951      0.99487404
       19400.987      0.99463745
       19401.024      0.99435373
       19401.061      0.99398484
       19401.097      0.99346979
       19401.134      0.99271056
       19401.170      0.99153181
       19401.207      0.98959606
       19401.243      0.98625959
       19401.280      0.98040626
       19401.316      0.97035289
       19401.353      0.95398500
       19401.389      0.92941151
