 #      wave           flux
       14900.000      0.99703404
       14900.030      0.99699218
       14900.060      0.99693575
       14900.090      0.99687157
       14900.120      0.99680313
       14900.150      0.99673185
       14900.180      0.99665809
       14900.210      0.99658170
       14900.240      0.99650233
       14900.270      0.99641958
       14900.300      0.99633301
       14900.330      0.99624214
       14900.360      0.99614643
       14900.390      0.99604515
       14900.420      0.99593732
       14900.450      0.99582177
       14900.480      0.99569716
       14900.510      0.99556212
       14900.540      0.99541524
       14900.570      0.99525511
       14900.600      0.99508030
       14900.630      0.99488938
       14900.660      0.99468086
       14900.690      0.99445310
       14900.720      0.99420414
       14900.750      0.99393125
       14900.780      0.99363038
       14900.810      0.99329594
       14900.840      0.99292084
       14900.870      0.99249642
       14900.900      0.99201200
       14900.930      0.99145440
       14900.960      0.99080640
       14900.990      0.99004478
       14901.020      0.98913755
       14901.050      0.98803795
       14901.080      0.98667622
       14901.110      0.98494781
       14901.140      0.98268323
       14901.170      0.97958822
       14901.200      0.97514812
       14901.230      0.96848879
       14901.260      0.95821604
       14901.290      0.94236246
       14901.320      0.91883624
       14901.350      0.88710138
       14901.380      0.84986280
       14901.410      0.81327542
       14901.440      0.78510581
       14901.470      0.77181539
       14901.500      0.77652194
       14901.530      0.79812908
       14901.560      0.83172303
       14901.590      0.86963759
       14901.620      0.90427815
       14901.650      0.93125353
       14901.680      0.95002730
       14901.710      0.96226073
       14901.740      0.97003858
       14901.770      0.97502338
       14901.800      0.97831126
       14901.830      0.98055948
       14901.860      0.98214538
       14901.890      0.98328579
       14901.920      0.98410936
       14901.950      0.98469583
       14901.980      0.98509770
       14902.010      0.98535065
       14902.040      0.98547895
       14902.070      0.98549907
       14902.100      0.98542182
       14902.130      0.98525421
       14902.160      0.98500039
       14902.190      0.98466161
       14902.220      0.98423567
       14902.250      0.98371705
       14902.280      0.98309757
       14902.310      0.98236685
       14902.340      0.98151273
       14902.370      0.98052218
       14902.400      0.97938504
       14902.430      0.97810105
       14902.460      0.97669130
       14902.490      0.97521330
       14902.520      0.97376335
       14902.550      0.97245942
       14902.580      0.97142234
       14902.610      0.97075403
       14902.640      0.97051420
       14902.670      0.97071203
       14902.700      0.97131274
       14902.730      0.97225232
       14902.760      0.97345129
       14902.790      0.97482499
       14902.820      0.97629133
       14902.850      0.97777567
       14902.880      0.97921556
       14902.910      0.98056472
       14902.940      0.98179746
       14902.970      0.98290804
       14903.000      0.98390295
       14903.030      0.98479443
       14903.060      0.98559601
       14903.090      0.98631974
       14903.120      0.98697602
       14903.150      0.98757403
       14903.180      0.98812181
       14903.210      0.98862600
       14903.240      0.98909184
       14903.270      0.98952367
       14903.300      0.98992526
       14903.330      0.99029978
       14903.360      0.99064972
       14903.390      0.99097712
       14903.420      0.99128374
       14903.450      0.99157124
       14903.480      0.99184124
       14903.510      0.99209530
       14903.540      0.99233496
       14903.570      0.99256164
       14903.600      0.99277657
       14903.630      0.99298071
       14903.660      0.99317481
       14903.690      0.99335952
       14903.720      0.99353544
       14903.750      0.99370313
       14903.780      0.99386317
       14903.810      0.99401609
       14903.840      0.99416240
       14903.870      0.99430255
       14903.900      0.99443686
       14903.930      0.99456561
       14903.960      0.99468904
       14903.990      0.99480735
       14904.020      0.99492076
       14904.050      0.99502947
       14904.080      0.99513369
       14904.110      0.99523361
       14904.140      0.99532946
       14904.170      0.99542142
       14904.200      0.99550971
       14904.230      0.99559452
       14904.260      0.99567607
       14904.290      0.99575456
       14904.320      0.99583018
       14904.350      0.99590314
       14904.380      0.99597361
       14904.410      0.99604174
       14904.440      0.99610766
       14904.470      0.99617144
       14904.500      0.99623316
       14904.530      0.99629288
       14904.560      0.99635067
       14904.590      0.99640659
       14904.620      0.99646070
       14904.650      0.99651307
       14904.680      0.99656376
       14904.710      0.99661282
       14904.740      0.99666033
       14904.770      0.99670634
       14904.800      0.99675091
       14904.830      0.99679411
       14904.860      0.99683600
       14904.890      0.99687663
       14904.920      0.99691605
       14904.950      0.99695429
       14904.980      0.99699138
       14905.010      0.99702730
       14905.040      0.99706205
       14905.070      0.99709562
       14905.100      0.99712800
       14905.130      0.99715916
       14905.160      0.99718911
       14905.190      0.99721781
       14905.220      0.99724527
       14905.250      0.99727146
       14905.280      0.99729638
       14905.310      0.99732000
       14905.340      0.99734232
       14905.370      0.99736332
       14905.400      0.99738300
       14905.430      0.99740135
       14905.460      0.99741837
       14905.490      0.99743411
       14905.520      0.99744862
       14905.550      0.99746201
       14905.580      0.99747437
       14905.610      0.99748582
       14905.640      0.99749646
       14905.670      0.99750640
       14905.700      0.99751576
       14905.730      0.99752465
       14905.760      0.99753318
       14905.790      0.99754146
       14905.820      0.99754961
       14905.850      0.99755773
       14905.880      0.99756593
       14905.910      0.99757433
       14905.940      0.99758300
       14905.970      0.99759201
       14906.000      0.99760134
       14906.030      0.99761085
       14906.060      0.99762019
       14906.090      0.99762891
       14906.120      0.99763650
       14906.150      0.99764240
       14906.180      0.99764605
       14906.210      0.99764690
       14906.240      0.99764437
       14906.270      0.99763791
       14906.300      0.99762695
       14906.330      0.99761093
       14906.360      0.99758929
       14906.390      0.99756145
       14906.420      0.99752686
       14906.450      0.99748498
       14906.480      0.99743529
       14906.510      0.99737737
       14906.540      0.99731097
       14906.570      0.99723619
       14906.600      0.99715358
       14906.630      0.99706398
       14906.660      0.99696838
       14906.690      0.99686786
       14906.720      0.99676348
       14906.750      0.99665635
       14906.780      0.99654757
       14906.810      0.99643824
       14906.840      0.99632946
       14906.870      0.99622233
       14906.900      0.99611795
       14906.930      0.99601742
       14906.960      0.99592180
       14906.990      0.99583215
       14907.020      0.99574932
       14907.050      0.99567388
       14907.080      0.99560559
       14907.110      0.99554284
       14907.140      0.99548220
       14907.170      0.99541898
       14907.200      0.99534760
       14907.230      0.99526179
       14907.260      0.99515470
       14907.290      0.99501927
       14907.320      0.99484868
       14907.350      0.99463669
       14907.380      0.99437749
       14907.410      0.99406462
       14907.440      0.99368944
       14907.470      0.99323919
       14907.500      0.99269626
       14907.530      0.99203786
       14907.560      0.99123345
       14907.590      0.99023880
       14907.620      0.98898755
       14907.650      0.98737644
       14907.680      0.98523863
       14907.710      0.98229120
       14907.740      0.97804813
       14907.770      0.97169783
       14907.800      0.96198617
       14907.830      0.94725762
       14907.860      0.92596634
       14907.890      0.89795324
       14907.920      0.86603094
       14907.950      0.83623787
       14907.980      0.81573044
       14908.010      0.80978724
       14908.040      0.81995215
       14908.070      0.84359644
       14908.100      0.87469435
       14908.130      0.90608477
       14908.160      0.93247192
       14908.190      0.95194938
       14908.220      0.96520829
       14908.250      0.97391427
       14908.280      0.97963985
       14908.310      0.98351319
       14908.340      0.98624854
       14908.370      0.98826684
       14908.400      0.98981087
       14908.430      0.99102725
       14908.460      0.99200939
       14908.490      0.99281716
       14908.520      0.99349100
       14908.550      0.99405973
       14908.580      0.99454448
       14908.610      0.99496143
       14908.640      0.99532293
       14908.670      0.99563840
       14908.700      0.99591526
       14908.730      0.99615936
       14908.760      0.99637550
       14908.790      0.99656782
       14908.820      0.99673993
       14908.850      0.99689459
       14908.880      0.99703324
       14908.910      0.99715584
       14908.940      0.99726135
       14908.970      0.99734827
       14909.000      0.99741435
       14909.030      0.99745494
       14909.060      0.99745729
       14909.090      0.99738574
       14909.120      0.99715478
       14909.150      0.99660363
       14909.180      0.99550578
       14909.210      0.99361016
       14909.240      0.99077821
       14909.270      0.98726508
       14909.300      0.98390059
       14909.330      0.98185922
       14909.360      0.98200001
       14909.390      0.98424951
       14909.420      0.98768509
       14909.450      0.99122255
       14909.480      0.99412174
       14909.510      0.99608837
       14909.540      0.99723726
       14909.570      0.99785314
       14909.600      0.99818125
       14909.630      0.99836658
       14909.660      0.99847967
       14909.690      0.99855317
       14909.720      0.99860378
       14909.750      0.99864174
       14909.780      0.99867378
       14909.810      0.99870359
       14909.840      0.99873249
       14909.870      0.99876048
       14909.900      0.99878710
       14909.930      0.99881193
       14909.960      0.99883476
       14909.990      0.99885565
       14910.020      0.99887475
       14910.050      0.99889230
       14910.080      0.99890854
       14910.110      0.99892372
       14910.140      0.99893807
       14910.170      0.99895180
       14910.200      0.99896509
       14910.230      0.99897800
       14910.260      0.99899058
       14910.290      0.99900281
       14910.320      0.99901469
       14910.350      0.99902619
       14910.380      0.99903729
       14910.410      0.99904796
       14910.440      0.99905818
       14910.470      0.99906795
       14910.500      0.99907727
       14910.530      0.99908614
       14910.560      0.99909461
       14910.590      0.99910268
       14910.620      0.99911040
       14910.650      0.99911778
       14910.680      0.99912484
       14910.710      0.99913162
       14910.740      0.99913810
       14910.770      0.99914426
       14910.800      0.99915006
       14910.830      0.99915543
       14910.860      0.99916029
       14910.890      0.99916457
       14910.920      0.99916820
       14910.950      0.99917110
       14910.980      0.99917322
       14911.010      0.99917450
       14911.040      0.99917494
       14911.070      0.99917453
       14911.100      0.99917317
       14911.130      0.99917048
       14911.160      0.99916537
       14911.190      0.99915531
       14911.220      0.99913497
       14911.250      0.99909267
       14911.280      0.99900090
       14911.310      0.99879567
       14911.340      0.99834121
       14911.370      0.99739101
       14911.400      0.99557774
       14911.430      0.99250858
       14911.460      0.98813233
       14911.490      0.98306869
       14911.520      0.97858506
       14911.550      0.97627324
       14911.580      0.97714743
       14911.610      0.98080548
       14911.640      0.98580055
       14911.670      0.99063204
       14911.700      0.99434654
       14911.730      0.99670323
       14911.760      0.99800609
       14911.790      0.99865625
       14911.820      0.99895866
       14911.850      0.99909603
       14911.880      0.99915992
       14911.910      0.99919131
       14911.940      0.99920788
       14911.970      0.99921760
       14912.000      0.99922416
       14912.030      0.99922906
       14912.060      0.99923280
       14912.090      0.99923543
       14912.120      0.99923692
       14912.150      0.99923725
       14912.180      0.99923642
       14912.210      0.99923451
       14912.240      0.99923159
       14912.270      0.99922774
       14912.300      0.99922303
       14912.330      0.99921754
       14912.360      0.99921131
       14912.390      0.99920436
       14912.420      0.99919661
       14912.450      0.99918798
       14912.480      0.99917833
       14912.510      0.99916753
       14912.540      0.99915542
       14912.570      0.99914186
       14912.600      0.99912671
       14912.630      0.99910980
       14912.660      0.99909100
       14912.690      0.99907015
       14912.720      0.99904709
       14912.750      0.99902167
       14912.780      0.99899371
       14912.810      0.99896305
       14912.840      0.99892947
       14912.870      0.99889266
       14912.900      0.99885211
       14912.930      0.99880690
       14912.960      0.99875557
       14912.990      0.99869625
       14913.020      0.99862684
       14913.050      0.99854515
       14913.080      0.99844886
       14913.110      0.99833549
       14913.140      0.99820211
       14913.170      0.99804474
       14913.200      0.99785729
       14913.230      0.99763016
       14913.260      0.99734899
       14913.290      0.99699218
       14913.320      0.99652551
       14913.350      0.99588894
       14913.380      0.99496558
       14913.410      0.99351641
       14913.440      0.99106656
       14913.470      0.98672151
       14913.500      0.97893145
       14913.530      0.96543326
       14913.560      0.94383597
       14913.590      0.91337197
       14913.620      0.87720586
       14913.650      0.84276800
       14913.680      0.81874304
       14913.710      0.81131789
       14913.740      0.82235383
       14913.770      0.84906759
       14913.800      0.88455438
       14913.830      0.92004941
       14913.860      0.94882664
       14913.890      0.96864132
       14913.920      0.98077845
       14913.950      0.98770146
       14913.980      0.99154854
       14914.010      0.99372510
       14914.040      0.99502621
       14914.070      0.99586380
       14914.100      0.99644439
       14914.130      0.99687132
       14914.160      0.99719645
       14914.190      0.99744710
       14914.220      0.99764010
       14914.250      0.99778804
       14914.280      0.99790149
       14914.310      0.99798933
       14914.340      0.99805808
       14914.370      0.99811143
       14914.400      0.99815110
       14914.430      0.99817784
       14914.460      0.99819192
       14914.490      0.99819343
       14914.520      0.99818237
       14914.550      0.99815860
       14914.580      0.99812191
       14914.610      0.99807199
       14914.640      0.99800836
       14914.670      0.99793020
       14914.700      0.99783589
       14914.730      0.99772228
       14914.760      0.99758391
       14914.790      0.99741340
       14914.820      0.99720205
       14914.850      0.99693975
       14914.880      0.99661369
       14914.910      0.99620503
       14914.940      0.99568247
       14914.970      0.99499352
       14915.000      0.99405429
       14915.030      0.99273519
       14915.060      0.99084402
       14915.090      0.98812218
       14915.120      0.98427097
       14915.150      0.97902940
       14915.180      0.97228506
       14915.210      0.96413568
       14915.240      0.95475466
       14915.270      0.94398601
       14915.300      0.93093361
       14915.330      0.91428302
       14915.360      0.89348778
       14915.390      0.87050763
       14915.420      0.85047240
       14915.450      0.83987987
       14915.480      0.84337967
       14915.510      0.86136254
       14915.540      0.88947672
       14915.570      0.92037778
       14915.600      0.94726542
       14915.630      0.96682964
       14915.660      0.97931745
       14915.690      0.98665106
       14915.720      0.99080557
       14915.750      0.99318343
       14915.780      0.99461399
       14915.810      0.99554547
       14915.840      0.99620196
       14915.870      0.99669351
       14915.900      0.99707752
       14915.930      0.99738719
       14915.960      0.99764316
       14915.990      0.99785873
       14916.020      0.99804226
       14916.050      0.99819918
       14916.080      0.99833352
       14916.110      0.99844874
       14916.140      0.99854801
       14916.170      0.99863435
       14916.200      0.99871052
       14916.230      0.99877882
       14916.260      0.99884086
       14916.290      0.99889761
       14916.320      0.99894970
       14916.350      0.99899758
       14916.380      0.99904166
       14916.410      0.99908229
       14916.440      0.99911981
       14916.470      0.99915452
       14916.500      0.99918667
       14916.530      0.99921646
       14916.560      0.99924405
       14916.590      0.99926956
       14916.620      0.99929314
       14916.650      0.99931491
       14916.680      0.99933500
       14916.710      0.99935355
       14916.740      0.99937067
       14916.770      0.99938650
       14916.800      0.99940116
       14916.830      0.99941479
       14916.860      0.99942751
       14916.890      0.99943945
       14916.920      0.99945072
       14916.950      0.99946144
       14916.980      0.99947169
       14917.010      0.99948152
       14917.040      0.99949098
       14917.070      0.99950007
       14917.100      0.99950880
       14917.130      0.99951717
       14917.160      0.99952521
       14917.190      0.99953290
       14917.220      0.99954026
       14917.250      0.99954730
       14917.280      0.99955401
       14917.310      0.99956040
       14917.340      0.99956648
       14917.370      0.99957226
       14917.400      0.99957774
       14917.430      0.99958292
       14917.460      0.99958782
       14917.490      0.99959244
       14917.520      0.99959679
       14917.550      0.99960088
       14917.580      0.99960473
       14917.610      0.99960834
       14917.640      0.99961173
       14917.670      0.99961490
       14917.700      0.99961787
       14917.730      0.99962065
       14917.760      0.99962325
       14917.790      0.99962569
       14917.820      0.99962797
       14917.850      0.99963010
       14917.880      0.99963210
       14917.910      0.99963397
       14917.940      0.99963572
       14917.970      0.99963735
       14918.000      0.99963883
       14918.030      0.99964015
       14918.060      0.99964127
       14918.090      0.99964216
       14918.120      0.99964278
