 #      wave           flux
       19380.000      0.99563257
       19380.052      0.99561359
       19380.104      0.99558633
       19380.155      0.99555597
       19380.207      0.99552458
       19380.259      0.99549279
       19380.311      0.99546071
       19380.362      0.99542830
       19380.414      0.99539554
       19380.466      0.99536236
       19380.518      0.99532871
       19380.569      0.99529454
       19380.621      0.99525980
       19380.673      0.99522444
       19380.725      0.99518840
       19380.776      0.99515164
       19380.828      0.99511410
       19380.880      0.99507573
       19380.931      0.99503647
       19380.983      0.99499629
       19381.035      0.99495511
       19381.087      0.99491290
       19381.139      0.99486960
       19381.190      0.99482516
       19381.242      0.99477952
       19381.294      0.99473264
       19381.345      0.99468446
       19381.397      0.99463493
       19381.449      0.99458399
       19381.501      0.99453157
       19381.553      0.99447755
       19381.604      0.99442178
       19381.656      0.99436410
       19381.708      0.99430433
       19381.760      0.99424228
       19381.811      0.99417776
       19381.863      0.99411060
       19381.915      0.99404062
       19381.966      0.99396762
       19382.018      0.99389143
       19382.070      0.99381186
       19382.122      0.99372873
       19382.174      0.99364186
       19382.225      0.99355106
       19382.277      0.99345614
       19382.329      0.99335694
       19382.380      0.99325326
       19382.432      0.99314492
       19382.484      0.99303173
       19382.536      0.99291352
       19382.588      0.99279010
       19382.639      0.99266128
       19382.691      0.99252689
       19382.743      0.99238673
       19382.795      0.99224064
       19382.846      0.99208840
       19382.898      0.99192982
       19382.950      0.99176461
       19383.001      0.99159229
       19383.053      0.99141198
       19383.105      0.99122243
       19383.157      0.99102226
       19383.209      0.99081001
       19383.260      0.99058424
       19383.312      0.99034354
       19383.364      0.99008657
       19383.415      0.98981230
       19383.467      0.98951993
       19383.519      0.98920881
       19383.571      0.98887830
       19383.623      0.98852774
       19383.674      0.98815633
       19383.726      0.98776285
       19383.778      0.98734509
       19383.830      0.98689963
       19383.881      0.98642239
       19383.933      0.98590907
       19383.985      0.98535525
       19384.036      0.98475639
       19384.088      0.98410763
       19384.140      0.98340334
       19384.192      0.98263691
       19384.244      0.98180105
       19384.295      0.98088820
       19384.347      0.97989056
       19384.399      0.97879983
       19384.450      0.97760609
       19384.502      0.97629544
       19384.554      0.97484721
       19384.606      0.97323610
       19384.658      0.97143447
       19384.709      0.96941288
       19384.761      0.96713957
       19384.813      0.96457799
       19384.865      0.96168125
       19384.916      0.95838855
       19384.968      0.95462553
       19385.020      0.95029763
       19385.071      0.94528813
       19385.123      0.93945573
       19385.175      0.93263297
       19385.227      0.92461104
       19385.279      0.91510164
       19385.330      0.90374668
       19385.382      0.89011444
       19385.434      0.87364713
       19385.485      0.85356695
       19385.537      0.82889563
       19385.589      0.79843285
       19385.641      0.76114680
       19385.693      0.71732550
       19385.744      0.67021296
       19385.796      0.62620401
       19385.848      0.59209751
       19385.900      0.57216843
       19385.951      0.56806992
       19386.003      0.58017910
       19386.055      0.60744145
       19386.107      0.64677737
       19386.158      0.69259943
       19386.210      0.73828469
       19386.262      0.77909456
       19386.314      0.81328064
       19386.365      0.84107512
       19386.417      0.86350008
       19386.469      0.88176767
       19386.520      0.89681170
       19386.572      0.90928154
       19386.624      0.91969830
       19386.676      0.92845942
       19386.728      0.93586500
       19386.779      0.94216189
       19386.831      0.94754910
       19386.883      0.95219013
       19386.934      0.95621062
       19386.986      0.95971668
       19387.038      0.96279759
       19387.090      0.96551631
       19387.142      0.96791066
       19387.193      0.97001873
       19387.245      0.97189088
       19387.297      0.97357366
       19387.349      0.97509616
       19387.400      0.97647572
       19387.452      0.97772493
       19387.504      0.97885516
       19387.555      0.97987805
       19387.607      0.98080547
       19387.659      0.98164903
       19387.711      0.98241913
       19387.763      0.98312399
       19387.814      0.98376992
       19387.866      0.98436241
       19387.918      0.98490665
       19387.969      0.98540776
       19388.021      0.98587076
       19388.073      0.98630050
       19388.125      0.98670125
       19388.177      0.98707602
       19388.228      0.98742632
       19388.280      0.98775291
       19388.332      0.98805625
       19388.384      0.98833670
       19388.435      0.98859461
       19388.487      0.98883022
       19388.539      0.98904352
       19388.590      0.98923381
       19388.642      0.98939958
       19388.694      0.98953882
       19388.746      0.98964989
       19388.798      0.98973292
       19388.849      0.98979031
       19388.901      0.98982536
       19388.953      0.98983724
       19389.004      0.98981042
       19389.056      0.98970189
       19389.108      0.98944470
       19389.160      0.98896838
       19389.212      0.98824063
       19389.263      0.98733340
       19389.315      0.98643767
       19389.367      0.98580852
       19389.419      0.98568892
       19389.470      0.98616285
       19389.522      0.98707541
       19389.574      0.98817070
       19389.625      0.98921589
       19389.677      0.99005418
       19389.729      0.99064728
       19389.781      0.99103904
       19389.833      0.99129920
       19389.884      0.99149093
       19389.936      0.99165214
       19389.988      0.99179618
       19390.039      0.99192460
       19390.091      0.99203591
       19390.143      0.99212961
       19390.195      0.99220719
       19390.247      0.99227149
       19390.298      0.99232556
       19390.350      0.99237179
       19390.402      0.99241158
       19390.454      0.99244555
       19390.505      0.99247404
       19390.557      0.99249727
       19390.609      0.99251543
       19390.661      0.99252875
       19390.712      0.99253740
       19390.764      0.99254153
       19390.816      0.99254122
       19390.868      0.99253647
       19390.919      0.99252723
       19390.971      0.99251345
       19391.023      0.99249505
       19391.074      0.99247199
       19391.126      0.99244416
       19391.178      0.99241145
       19391.230      0.99237365
       19391.282      0.99233031
       19391.333      0.99228089
       19391.385      0.99222477
       19391.437      0.99216132
       19391.488      0.99208992
       19391.540      0.99200991
       19391.592      0.99192063
       19391.644      0.99182127
       19391.696      0.99171079
       19391.747      0.99158794
       19391.799      0.99145125
       19391.851      0.99129924
       19391.903      0.99113037
       19391.954      0.99094307
       19392.006      0.99073563
       19392.058      0.99050594
       19392.109      0.99025068
       19392.161      0.98996429
       19392.213      0.98963924
       19392.265      0.98926661
       19392.317      0.98883535
       19392.368      0.98833074
       19392.420      0.98773402
       19392.472      0.98702356
       19392.523      0.98617306
       19392.575      0.98513922
       19392.627      0.98382335
       19392.679      0.98198643
       19392.731      0.97913942
       19392.782      0.97452433
       19392.834      0.96734157
       19392.886      0.95786163
       19392.938      0.94810733
       19392.989      0.93960338
       19393.041      0.92992028
       19393.093      0.91305564
       19393.144      0.88372438
       19393.196      0.84190502
       19393.248      0.79609791
       19393.300      0.76157244
       19393.352      0.75153624
       19393.403      0.76961084
       19393.455      0.80816754
       19393.507      0.85210549
       19393.558      0.88793552
       19393.610      0.91006951
       19393.662      0.91861491
       19393.714      0.91435105
       19393.766      0.89652266
       19393.817      0.86394540
       19393.869      0.81969498
       19393.921      0.77552485
       19393.973      0.74811206
       19394.024      0.74891091
       19394.076      0.77809040
       19394.128      0.82427106
       19394.179      0.87159779
       19394.231      0.90936110
       19394.283      0.93503659
       19394.335      0.95109301
       19394.387      0.96104316
       19394.438      0.96729639
       19394.490      0.97127844
       19394.542      0.97374661
       19394.593      0.97505737
       19394.645      0.97528100
       19394.697      0.97421548
       19394.749      0.97126475
       19394.801      0.96520938
       19394.852      0.95410192
       19394.904      0.93579258
       19394.956      0.91026526
       19395.008      0.88309796
       19395.059      0.86510010
       19395.111      0.86538160
       19395.163      0.88398592
       19395.214      0.91185200
       19395.266      0.93817962
       19395.318      0.95741941
       19395.370      0.96958723
       19395.422      0.97684472
       19395.473      0.98121263
       19395.525      0.98395969
       19395.577      0.98580806
       19395.628      0.98713177
       19395.680      0.98811181
       19395.732      0.98884949
       19395.784      0.98941714
       19395.836      0.98987071
       19395.887      0.99024708
       19395.939      0.99056676
       19395.991      0.99084231
       19396.043      0.99108304
       19396.094      0.99129601
       19396.146      0.99148553
       19396.198      0.99165430
       19396.250      0.99180434
       19396.301      0.99193746
       19396.353      0.99205541
       19396.405      0.99215990
       19396.457      0.99225266
       19396.508      0.99233532
       19396.560      0.99240930
       19396.612      0.99247571
       19396.663      0.99253535
       19396.715      0.99258887
       19396.767      0.99263691
       19396.819      0.99268006
       19396.871      0.99271894
       19396.922      0.99275413
       19396.974      0.99278620
       19397.026      0.99281566
       19397.077      0.99284285
       19397.129      0.99286794
       19397.181      0.99289105
       19397.233      0.99291223
       19397.285      0.99293155
       19397.336      0.99294908
       19397.388      0.99296487
       19397.440      0.99297898
       19397.492      0.99299148
       19397.543      0.99300241
       19397.595      0.99301185
       19397.647      0.99301985
       19397.698      0.99302648
       19397.750      0.99303179
       19397.802      0.99303584
       19397.854      0.99303869
       19397.906      0.99304040
       19397.957      0.99304104
       19398.009      0.99304065
       19398.061      0.99303930
       19398.112      0.99303702
       19398.164      0.99303387
       19398.216      0.99302989
       19398.268      0.99302514
       19398.320      0.99301965
       19398.371      0.99301349
       19398.423      0.99300669
       19398.475      0.99299930
       19398.527      0.99299137
       19398.578      0.99298295
       19398.630      0.99297409
       19398.682      0.99296483
       19398.733      0.99295522
       19398.785      0.99294531
       19398.837      0.99293515
       19398.889      0.99292477
       19398.941      0.99291420
       19398.992      0.99290345
       19399.044      0.99289248
       19399.096      0.99288124
       19399.147      0.99286969
       19399.199      0.99285775
       19399.251      0.99284538
       19399.303      0.99283252
       19399.355      0.99281912
       19399.406      0.99280510
       19399.458      0.99279043
       19399.510      0.99277503
       19399.562      0.99275886
       19399.613      0.99274186
       19399.665      0.99272397
       19399.717      0.99270513
       19399.768      0.99268529
       19399.820      0.99266438
       19399.872      0.99264233
       19399.924      0.99261905
       19399.976      0.99259440
       19400.027      0.99256820
       19400.079      0.99254025
       19400.131      0.99251037
       19400.182      0.99247836
       19400.234      0.99244403
       19400.286      0.99240717
       19400.338      0.99236761
       19400.390      0.99232513
       19400.441      0.99227955
       19400.493      0.99223067
       19400.545      0.99217829
       19400.597      0.99212222
       19400.648      0.99206227
       19400.700      0.99199823
       19400.752      0.99192992
       19400.804      0.99185712
       19400.855      0.99177959
       19400.907      0.99169705
       19400.959      0.99160912
       19401.011      0.99151542
       19401.062      0.99141554
       19401.114      0.99130904
       19401.166      0.99119551
       19401.217      0.99107448
       19401.269      0.99094536
       19401.321      0.99080716
       19401.373      0.99065790
       19401.425      0.99049412
       19401.476      0.99031142
       19401.528      0.99010506
       19401.580      0.98987018
       19401.632      0.98960189
       19401.683      0.98929523
       19401.735      0.98894505
       19401.787      0.98854543
       19401.839      0.98808846
       19401.890      0.98756263
       19401.942      0.98695221
       19401.994      0.98623682
       19402.046      0.98538993
       19402.097      0.98437358
       19402.149      0.98313105
       19402.201      0.98158508
       19402.252      0.97963011
       19402.304      0.97711864
       19402.356      0.97381990
       19402.408      0.96934013
       19402.460      0.96301116
       19402.511      0.95371267
       19402.563      0.93964243
       19402.615      0.91816986
       19402.666      0.88638070
       19402.718      0.84332889
       19402.770      0.79396008
       19402.822      0.75079752
       19402.874      0.72836969
       19402.925      0.73479523
       19402.977      0.76799357
       19403.029      0.81632502
       19403.081      0.86459060
       19403.132      0.90294390
       19403.184      0.92963745
       19403.236      0.94713445
       19403.287      0.95853958
       19403.339      0.96616458
       19403.391      0.97144754
       19403.443      0.97526182
       19403.495      0.97809780
       19403.546      0.98026602
       19403.598      0.98197746
       19403.650      0.98336162
       19403.701      0.98449681
       19403.753      0.98543032
       19403.805      0.98619565
       19403.857      0.98682168
       19403.909      0.98733589
       19403.960      0.98776437
       19404.012      0.98812998
       19404.064      0.98844881
       19404.116      0.98872977
       19404.167      0.98897820
       19404.219      0.98919814
       19404.271      0.98939321
       19404.322      0.98956685
       19404.374      0.98972215
       19404.426      0.98986147
       19404.478      0.98998637
       19404.530      0.99009795
       19404.581      0.99019718
       19404.633      0.99028496
       19404.685      0.99036219
       19404.736      0.99042977
       19404.788      0.99048860
       19404.840      0.99053956
       19404.892      0.99058356
       19404.944      0.99062150
       19404.995      0.99065425
       19405.047      0.99068269
       19405.099      0.99070758
       19405.151      0.99072952
       19405.202      0.99074886
       19405.254      0.99076577
       19405.306      0.99078040
       19405.357      0.99079287
       19405.409      0.99080330
       19405.461      0.99081179
       19405.513      0.99081847
       19405.565      0.99082345
       19405.616      0.99082684
       19405.668      0.99082876
       19405.720      0.99082931
       19405.771      0.99082862
       19405.823      0.99082677
       19405.875      0.99082381
       19405.927      0.99081974
       19405.979      0.99081449
       19406.030      0.99080801
       19406.082      0.99080021
       19406.134      0.99079104
       19406.186      0.99078041
       19406.237      0.99076825
       19406.289      0.99075448
       19406.341      0.99073904
       19406.393      0.99072185
       19406.444      0.99070283
       19406.496      0.99068192
       19406.548      0.99065904
       19406.600      0.99063412
       19406.651      0.99060711
       19406.703      0.99057795
       19406.755      0.99054662
       19406.806      0.99051305
       19406.858      0.99047720
       19406.910      0.99043902
       19406.962      0.99039848
       19407.014      0.99035552
       19407.065      0.99031010
       19407.117      0.99026217
       19407.169      0.99021169
       19407.220      0.99015856
       19407.272      0.99010264
       19407.324      0.99004358
       19407.376      0.98998061
       19407.428      0.98991259
       19407.479      0.98983824
       19407.531      0.98975620
       19407.583      0.98966504
       19407.635      0.98956301
       19407.686      0.98944757
       19407.738      0.98931466
       19407.790      0.98915881
       19407.841      0.98897380
       19407.893      0.98875318
       19407.945      0.98849036
       19407.997      0.98817837
       19408.049      0.98780923
       19408.100      0.98737202
       19408.152      0.98684907
       19408.204      0.98620535
       19408.255      0.98536249
       19408.307      0.98416368
       19408.359      0.98235434
       19408.411      0.97949203
       19408.463      0.97471911
       19408.514      0.96656161
       19408.566      0.95316043
       19408.618      0.93367403
       19408.670      0.91112557
       19408.721      0.89361175
       19408.773      0.88955187
       19408.825      0.90029450
       19408.876      0.91846264
       19408.928      0.93405031
       19408.980      0.94136450
       19409.032      0.94055716
       19409.084      0.93570481
       19409.135      0.93268160
       19409.187      0.93588521
       19409.239      0.94527128
       19409.290      0.95698032
       19409.342      0.96715119
       19409.394      0.97429799
       19409.446      0.97878677
       19409.498      0.98148760
       19409.549      0.98313524
       19409.601      0.98418839
       19409.653      0.98488963
       19409.705      0.98536499
       19409.756      0.98568027
       19409.808      0.98587682
       19409.860      0.98598645
       19409.911      0.98603349
       19409.963      0.98603104
       19410.015      0.98598234
       19410.067      0.98588617
       19410.119      0.98573982
       19410.170      0.98554056
       19410.222      0.98528654
       19410.274      0.98497585
       19410.325      0.98460496
